timestamp,emg1,emg2,emg3,emg4,emg5,emg6,emg7,emg8
15:40:43.941136,-1,0,-2,-1,-2,-2,-2,3
15:40:43.956127,-3,0,2,0,1,2,1,-2
15:40:43.963123,1,1,-1,-4,-2,0,-3,-1
15:40:43.972117,-1,-1,-1,-3,-2,-2,-1,-3
15:40:43.978114,0,0,-2,-2,2,0,-1,-1
15:40:43.993105,2,-2,-1,-1,-2,-2,-1,-2
15:40:44.000102,-2,-1,1,-1,2,-1,-2,-1
15:40:44.015092,-2,-2,1,-5,-2,-1,-2,-1
15:40:44.023086,0,-4,-3,-1,-4,0,-2,-4
15:40:44.031081,-1,-1,-2,-2,1,-2,-1,-3
15:40:44.038077,-2,-1,-3,-4,-6,-3,-3,0
15:40:44.053066,1,0,-2,0,2,-2,1,-2
15:40:44.060065,-2,-4,-3,-1,-4,0,-2,0
15:40:44.075052,-3,0,-2,-1,0,-6,-1,-2
15:40:44.083048,1,-1,1,-1,-3,-1,2,-2
15:40:44.091043,-2,-1,-4,-2,0,-2,-4,-1
15:40:44.098039,-2,-3,-1,-3,-1,0,-1,-5
15:40:44.113030,1,0,0,1,-4,-1,-5,-1
15:40:44.120027,-1,1,-1,-2,0,-4,-2,-1
15:40:44.135018,-3,-2,-1,-4,0,2,-2,-2
15:40:44.143010,-1,-1,-2,0,1,0,2,-2
15:40:44.158001,2,0,-1,-2,-3,-1,-1,0
15:40:44.165004,-1,-2,-3,-2,-2,0,-4,-3
15:40:44.172991,1,3,1,1,5,4,4,0
15:40:44.179990,1,-3,-2,-4,0,3,-2,-2
15:40:44.194981,-4,0,1,-1,-1,-4,0,-2
15:40:44.202973,-1,-3,-3,-2,-3,-2,-4,-6
15:40:44.217964,-1,0,-2,-1,0,0,-1,-1
15:40:44.217964,-2,-1,-1,-1,1,-2,-2,2
15:40:44.232954,-2,2,-1,0,-4,-3,-5,-1
15:40:44.240950,-3,-1,-2,-1,-1,2,0,-3
15:40:44.254954,-1,-1,1,-4,1,-1,-1,-2
15:40:44.270932,2,2,-1,1,-4,1,-1,-1
15:40:44.277927,0,-1,1,-3,-2,1,2,-3
15:40:44.278930,2,-2,-1,-1,1,3,2,-3
15:40:44.292919,2,1,-2,2,-4,0,0,-2
15:40:44.300913,-2,-4,-4,-1,-1,-2,0,-1
15:40:44.315904,-1,-2,0,-1,-1,-2,-2,-1
15:40:44.322901,-2,-3,0,-1,-4,-3,0,0
15:40:44.337890,3,1,-2,0,1,-1,0,2
15:40:44.338892,-2,1,-1,0,1,-3,-2,-2
15:40:44.360875,-3,0,1,-3,-3,-3,-4,0
15:40:44.360875,-2,0,-1,-1,-3,-1,-2,-3
15:40:44.375869,3,1,0,4,1,-1,2,1
15:40:44.382864,0,0,-3,-4,-2,1,-2,0
15:40:44.397856,1,-1,-1,-1,5,4,0,1
15:40:44.398855,-1,-1,-2,-3,-4,-2,-2,-1
15:40:44.412845,-1,0,-4,-1,1,-1,-1,2
15:40:44.420841,-1,-1,-4,-5,-5,-3,-1,-1
15:40:44.435832,-2,0,-1,1,0,0,-2,0
15:40:44.442825,0,0,-4,-1,0,-1,1,-2
15:40:44.457818,-3,1,-2,1,0,0,-1,-3
15:40:44.458815,-2,0,-1,-1,-1,-2,-2,-1
15:40:44.472806,-4,-3,-2,-1,4,0,0,-3
15:40:44.480802,-4,3,-3,1,-3,-5,-2,-3
15:40:44.495792,3,0,-1,-1,0,3,0,-1
15:40:44.502789,3,-1,-1,-2,5,6,-2,-1
15:40:44.517781,-1,-1,2,1,-3,-3,2,-2
15:40:44.518781,-2,0,-2,-1,-4,-3,0,2
15:40:44.533771,1,-1,1,3,2,1,2,1
15:40:44.540767,1,0,2,0,0,-1,2,3
15:40:44.555758,2,0,-2,-4,0,-2,-1,-2
15:40:44.563755,-2,-3,-3,2,-1,0,-3,0
15:40:44.577742,0,0,-1,-1,-2,-5,-3,-3
15:40:44.578740,-5,-1,1,0,-2,0,1,3
15:40:44.593732,0,1,-3,-2,-2,0,-1,-1
15:40:44.600730,0,-3,0,2,-2,0,-1,0
15:40:44.615721,3,-1,3,1,0,-1,1,0
15:40:44.622715,-1,-1,-4,-1,-1,-2,-1,-2
15:40:44.645703,3,2,1,2,4,-1,4,3
15:40:44.646702,0,0,-1,-3,-4,-1,-1,-2
15:40:44.652698,0,-4,-2,-2,0,-1,2,-4
15:40:44.660693,0,-1,0,1,-3,-3,0,2
15:40:44.675681,1,0,0,1,0,3,0,1
15:40:44.683675,1,0,0,0,-2,-3,1,-3
15:40:44.697669,-2,-2,-1,-5,-2,1,0,-2
15:40:44.698669,0,1,-1,-1,-1,-2,0,0
15:40:44.713660,-2,-4,0,1,-2,1,-1,-1
15:40:44.728654,-1,1,-1,1,1,-1,4,0
15:40:44.735646,-1,0,0,-3,-3,-3,-4,-3
15:40:44.743641,2,1,1,1,-1,-3,0,2
15:40:44.758630,1,2,-2,-1,-1,-1,-3,0
15:40:44.758630,1,-2,0,1,-2,1,-3,0
15:40:44.773620,-2,-1,-1,-2,-3,-1,-1,0
15:40:44.780616,1,-1,-1,0,-1,1,0,0
15:40:44.795606,4,0,-1,-1,-3,-3,-3,2
15:40:44.803603,-1,-3,-1,-3,-2,-4,-3,2
15:40:44.817595,0,0,0,-1,-1,-3,-3,-2
15:40:44.818593,-1,-3,-4,-2,-3,0,-4,-3
15:40:44.833585,0,1,-4,0,-1,1,-1,-2
15:40:44.840578,-4,-2,-2,-2,-3,-3,0,0
15:40:44.855569,-2,-3,-2,0,0,0,0,0
15:40:44.863567,-1,-2,0,0,1,1,0,0
15:40:44.878556,0,-2,0,1,-2,-1,-2,-5
15:40:44.878556,0,0,3,-1,-4,-2,1,1
15:40:44.893549,-2,-3,-2,-3,-4,-4,-4,-6
15:40:44.900541,3,-1,0,1,5,0,3,0
15:40:44.922529,1,-1,-2,1,-1,-5,1,-3
15:40:44.923528,-5,-2,-2,-1,-3,-1,1,-6
15:40:44.938519,-1,-1,-2,-1,0,1,-3,0
15:40:44.938519,-2,-1,-2,-3,1,-1,-2,1
15:40:44.953508,0,-2,-3,-2,-2,-3,-4,-1
15:40:44.960507,4,1,0,1,2,-5,1,0
15:40:44.976494,-4,-1,-4,-1,-3,-4,-2,1
15:40:44.983493,3,-2,1,0,2,-2,0,0
15:40:45.005478,1,0,-1,-1,-3,0,-3,-1
15:40:45.006478,-1,1,-1,-1,1,-1,-1,-3
15:40:45.013474,-1,-1,0,0,-4,0,0,-3
15:40:45.020469,-3,0,-2,-1,0,1,-2,0
15:40:45.035460,-3,-4,-1,-2,-4,-2,-1,-2
15:40:45.043456,-1,1,-1,0,-2,2,-3,-1
15:40:45.058444,-4,0,-3,-3,-6,-11,-8,-3
15:40:45.059443,-11,-3,-3,-1,2,0,0,-7
15:40:45.073437,-17,-9,-8,-6,-7,-13,-13,-17
15:40:45.080429,3,-2,-10,-6,-8,-1,5,11
15:40:45.096423,0,3,4,2,0,-4,-3,2
15:40:45.103415,-3,-3,0,2,0,2,1,-2
15:40:45.118407,2,2,4,4,3,2,-2,3
15:40:45.126401,1,3,0,2,-1,-1,3,4
15:40:45.141392,-3,0,-2,-3,-1,-3,0,0
15:40:45.142393,-1,0,0,-3,-1,-1,-2,2
15:40:45.155384,5,0,0,2,0,-2,0,0
15:40:45.163382,-1,-2,1,-3,3,0,2,3
15:40:45.178372,-1,-1,-2,-2,-1,-1,-2,-1
15:40:45.185364,1,0,-1,0,-2,0,1,-1
15:40:45.200358,-1,-3,-3,-1,-2,-2,-1,0
15:40:45.201357,-1,-1,1,0,-4,-5,-4,-10
15:40:45.215348,6,-1,3,4,4,5,7,7
15:40:45.223346,-3,-2,-3,-2,-3,-3,1,-2
15:40:45.238335,-1,-2,-1,0,-2,-6,-3,1
15:40:45.246329,1,2,0,-3,-7,-2,1,2
15:40:45.260318,-3,0,-3,-5,-3,-1,0,-3
15:40:45.261320,-2,0,-2,1,0,-2,-1,-1
15:40:45.276311,-4,-1,0,-2,-8,-5,-4,-4
15:40:45.283307,2,2,1,-1,4,3,1,2
15:40:45.298297,-4,-1,1,-2,-1,0,2,5
15:40:45.305291,-2,3,-3,0,-3,-4,1,0
15:40:45.320284,-1,-2,-4,-3,-3,-5,-7,0
15:40:45.321281,0,-2,2,0,1,-3,2,2
15:40:45.336273,0,3,0,-2,-3,4,4,1
15:40:45.343269,-3,-4,-5,0,-2,-4,-5,-4
15:40:45.358260,4,2,1,3,5,5,1,0
15:40:45.365252,0,-1,-3,1,-3,-1,-1,1
15:40:45.380246,0,1,-1,4,1,-3,-1,0
15:40:45.381246,-2,-2,-5,-2,-2,-2,6,1
15:40:45.396237,8,1,0,-3,-2,-2,1,13
15:40:45.403232,5,-1,1,-1,-3,-5,-2,6
15:40:45.418223,3,3,3,2,8,2,9,6
15:40:45.426217,-2,-5,-1,-3,-2,4,0,-7
15:40:45.440208,-5,0,-1,-3,-4,0,-3,-6
15:40:45.441206,1,0,-2,-2,0,-3,-1,0
15:40:45.456199,-3,-6,-5,3,-2,-4,-6,-6
15:40:45.463195,-2,-2,-2,1,-5,-2,0,3
15:40:45.478185,0,0,2,2,6,0,4,0
15:40:45.485181,-4,-1,0,0,-1,1,1,0
15:40:45.501168,-6,-4,-4,-1,-2,-8,1,-5
15:40:45.501168,1,3,3,1,1,0,1,2
15:40:45.516161,-5,-2,-1,0,-1,-1,-1,-4
15:40:45.531153,-5,-3,-4,-2,-4,0,-1,-2
15:40:45.538146,1,-4,-4,-3,6,0,-1,2
15:40:45.546142,-4,-3,-1,-3,-2,-2,0,-2
15:40:45.561133,0,-1,-2,-2,-4,-2,-3,-5
15:40:45.561133,-5,-1,-2,3,1,-1,-2,-2
15:40:45.576122,-1,-2,-1,2,1,-4,-3,-1
15:40:45.583118,3,3,0,-16,-11,-4,4,3
15:40:45.598109,-2,-3,-1,6,4,0,1,-2
15:40:45.606107,0,-1,1,0,2,2,0,-2
15:40:45.620095,-2,-3,-6,-6,-6,-5,-1,-3
15:40:45.621097,11,-2,-2,-1,1,3,4,6
15:40:45.636084,-2,-2,1,-1,-3,-2,-2,-2
15:40:45.643081,3,-3,-1,0,2,0,-2,1
15:40:45.658072,0,-2,0,-6,-1,-3,1,0
15:40:45.666069,-4,-4,-4,0,-7,-5,-3,-3
15:40:45.681060,3,2,0,2,-1,1,-1,-1
15:40:45.681060,4,1,-3,-1,-1,-1,0,2
15:40:45.696050,4,1,-4,0,-2,-1,10,8
15:40:45.703046,0,1,1,-1,3,9,-7,4
15:40:45.718037,-8,-4,-5,0,-1,9,8,-7
15:40:45.726032,12,2,4,7,8,3,-12,7
15:40:45.741020,-5,-5,-2,-2,-2,-4,-4,-9
15:40:45.741020,-3,-2,-2,-2,-5,1,2,-5
15:40:45.756011,-3,-6,-5,-2,2,0,-3,-5
15:40:45.763009,-1,-3,-2,-2,-4,1,-3,3
15:40:45.777999,0,-4,-4,-2,-3,-4,-3,-3
15:40:45.785995,3,3,0,2,1,-3,3,1
15:40:45.800985,0,-1,-2,1,1,3,0,-3
15:40:45.800985,-1,2,19,10,-7,-2,-3,1
15:40:45.815976,-4,0,-5,24,6,1,-3,2
15:40:45.822969,-1,1,2,-1,-6,-1,0,1
15:40:45.837962,-1,1,-11,-11,4,0,0,1
15:40:45.845957,2,1,19,13,7,3,0,-1
15:40:45.860945,-1,-1,-4,-13,-4,-1,0,-1
15:40:45.860945,5,4,5,-17,6,2,6,6
15:40:45.875939,-3,-1,-29,-7,-5,-5,-2,-3
15:40:45.882932,-3,2,26,21,7,0,-2,-4
15:40:45.897924,-4,-7,-20,-20,-8,-2,-1,2
15:40:45.905917,1,5,18,10,0,-5,-2,-1
15:40:45.920911,6,5,23,-39,5,3,2,4
15:40:45.920911,5,5,8,-13,9,6,7,4
15:40:45.935902,4,3,-19,-82,52,13,3,2
15:40:45.950890,-4,-12,-58,-33,-24,-16,-4,-3
15:40:45.957885,-17,-18,-7,-51,42,-4,-10,-11
15:40:45.965880,13,26,12,4,-69,-2,8,9
15:40:45.980872,-4,-3,33,-45,4,-7,-3,-7
15:40:45.980872,6,-3,-18,49,-43,11,6,4
15:40:45.995864,0,12,1,66,-128,-22,-2,-2
15:40:46.002857,1,-2,-44,90,-128,25,0,-3
15:40:46.018847,-3,-8,36,84,-128,-44,-5,-4
15:40:46.025846,11,5,-20,-128,35,-3,7,11
15:40:46.040835,-24,-25,-128,27,-128,6,-7,-14
15:40:46.047830,-37,-38,16,127,127,-60,-28,-34
15:40:46.062822,-12,-21,3,-128,-128,7,-3,-11
15:40:46.063822,-3,9,38,91,34,48,3,0
15:40:46.078814,57,59,53,-128,-128,3,38,44
15:40:46.085809,-57,-79,-108,127,127,-50,-35,-31
15:40:46.100796,14,7,-32,-109,-128,38,13,13
15:40:46.107793,-32,-43,-43,127,127,61,-11,-19
15:40:46.122783,6,-19,-128,-34,127,15,10,11
15:40:46.123783,8,39,79,-128,-128,-23,7,6
15:40:46.137773,-55,-63,-34,127,127,-27,-34,-41
15:40:46.145769,31,49,18,-52,-70,7,11,12
15:40:46.160763,16,6,-26,-16,-128,-22,17,19
15:40:46.168756,-7,-10,-32,95,73,4,-1,-2
15:40:46.182745,-4,-47,-47,-35,-79,15,1,-14
15:40:46.183748,44,26,-87,-37,89,-21,38,55
15:40:46.198739,-28,15,47,127,127,93,-11,-32
15:40:46.205734,-13,-68,-70,-9,127,-28,6,8
15:40:46.220726,81,127,127,127,127,16,0,7
15:40:46.228721,0,70,21,-128,-128,-42,14,54
15:40:46.243711,3,57,102,127,-128,-128,-16,-19
15:40:46.243711,-53,-119,-33,22,-128,123,-10,-25
15:40:46.258702,1,-24,-79,-3,127,-41,-9,-1
15:40:46.265694,21,74,26,-128,-128,-128,-8,5
15:40:46.280688,-128,-128,-128,-128,-91,-17,-32,-68
15:40:46.287683,30,41,20,127,78,127,11,19
15:40:46.303673,-27,-32,7,-128,-128,-128,-10,-4
15:40:46.303673,-51,-108,-108,127,127,103,3,-10
15:40:46.318664,63,110,27,-128,127,-63,1,17
15:40:46.325660,17,29,49,127,127,-36,3,8
15:40:46.340651,-25,-42,101,127,80,37,-1,-7
15:40:46.348642,15,41,23,48,72,2,4,0
15:40:46.363636,-12,-9,-14,-104,-51,-15,-7,-8
15:40:46.363636,9,7,-1,28,-128,-34,3,6
15:40:46.378624,0,-2,11,43,2,4,2,5
15:40:46.385623,5,4,-45,-128,24,-73,-8,-8
15:40:46.400610,-14,-16,-9,-33,62,81,1,-9
15:40:46.408609,5,52,43,-73,49,20,5,-1
15:40:46.423596,0,5,-3,21,127,8,1,-3
15:40:46.423596,4,8,4,127,127,-6,1,4
15:40:46.445587,-14,-30,-23,6,-58,63,0,-7
15:40:46.446585,-13,-21,33,127,120,53,-1,-6
15:40:46.460577,0,-11,-10,127,127,110,19,12
15:40:46.468575,23,27,-12,-43,-128,-41,3,7
15:40:46.483559,-3,9,18,-80,-128,-9,-7,-1
15:40:46.483559,-1,-19,-32,31,42,18,-1,3
15:40:46.505545,-31,-66,-38,94,127,73,-1,-7
15:40:46.506545,-19,-33,-40,-111,-109,30,-4,-9
15:40:46.520536,7,28,11,-28,-80,-70,-8,-4
15:40:46.528531,-10,-11,-17,8,20,-7,-4,-6
15:40:46.543525,6,15,12,113,-128,-108,0,0
15:40:46.543525,-36,-27,40,36,-42,31,-10,-21
15:40:46.565511,-9,-9,3,54,76,-56,0,-1
15:40:46.566513,1,2,-18,-56,-128,4,6,0
15:40:46.580499,8,10,32,127,127,64,6,5
15:40:46.588497,-3,-32,-8,98,127,31,10,8
15:40:46.603486,18,18,-11,-68,-128,-81,3,7
15:40:46.603486,-29,-22,19,12,127,109,-3,-18
15:40:46.618478,9,20,-1,-128,48,12,-1,2
15:40:46.625474,3,-14,-18,33,68,-22,6,7
15:40:46.640462,-15,-17,41,65,-94,-20,-3,-4
15:40:46.648457,17,23,12,116,11,15,6,8
15:40:46.663448,-3,-5,0,-41,42,31,-5,-6
15:40:46.670446,-12,-19,5,113,127,28,2,-3
15:40:46.678442,22,34,20,-55,-128,32,9,9
15:40:46.685435,-10,-14,-3,98,127,55,2,-3
15:40:46.700425,11,17,50,82,50,30,5,3
15:40:46.708427,5,-4,-25,-82,127,-1,0,2
15:40:46.723410,-1,-7,-14,-32,124,22,4,-2
15:40:46.723410,0,-7,-10,102,49,51,6,2
15:40:46.738404,-10,-15,-21,103,127,11,-3,-2
15:40:46.745398,5,-5,-41,-70,59,-7,4,7
15:40:46.760387,8,10,4,-32,122,3,-2,2
15:40:46.768382,6,0,1,-13,43,61,9,8
15:40:46.783375,17,18,-10,-100,127,51,5,10
15:40:46.783375,-23,-46,-29,-13,25,16,-8,-10
15:40:46.798364,-4,-4,-6,-56,-8,-3,0,-2
15:40:46.805360,17,42,34,59,-128,-8,7,10
15:40:46.820351,-2,3,1,65,127,20,1,-1
15:40:46.828345,11,8,-7,-74,-12,-9,-1,2
15:40:46.843336,-27,-37,-36,-33,-3,10,-10,-17
15:40:46.844336,12,36,33,2,127,33,1,1
15:40:46.858329,2,20,3,-47,-118,-13,-3,-4
15:40:46.865324,15,37,33,32,-19,3,1,-1
15:40:46.880314,0,-17,6,-43,70,23,10,6
15:40:46.888311,-49,-79,-52,-17,24,9,-9,-19
15:40:46.903301,-4,3,3,-13,-23,-11,-4,-3
15:40:46.903301,-10,-32,-20,59,100,2,5,0
15:40:46.918293,5,14,4,-51,-28,7,-3,-3
15:40:46.925288,-8,-20,-16,47,98,26,-3,-4
15:40:46.940276,10,10,2,-27,-35,1,4,5
15:40:46.948274,-1,-1,6,127,67,28,0,-1
15:40:46.963262,15,19,2,-8,-57,8,4,6
15:40:46.970258,1,7,9,-22,-21,-7,-2,-1
15:40:46.985248,4,6,0,-51,-42,-5,-1,3
15:40:46.986248,-10,-42,-33,-18,12,8,3,0
15:40:47.000240,-8,-13,-11,-36,56,-3,-3,-4
15:40:47.008234,11,15,48,102,-62,-5,2,3
15:40:47.023226,-33,-45,-38,31,45,3,-15,-19
15:40:47.030222,3,-3,-10,-3,127,35,5,6
15:40:47.045213,20,42,42,-9,-13,-13,4,6
15:40:47.046210,-12,-32,-26,-40,19,-7,1,-6
15:40:47.061201,4,-4,-13,-41,-43,-16,-1,2
15:40:47.068199,-7,-5,2,39,127,18,1,-5
15:40:47.083187,13,28,13,-128,-29,-6,2,6
15:40:47.090185,-17,-14,-24,88,-28,7,-4,-6
15:40:47.105174,-23,-47,-33,0,8,-3,-6,-6
15:40:47.106173,38,90,55,-37,-128,-46,-3,8
15:40:47.121167,-30,-23,-16,-51,-63,-5,-8,-14
15:40:47.128159,3,-3,-7,-32,-65,7,7,4
15:40:47.143153,36,112,26,-95,-128,-112,-15,-1
15:40:47.150149,-42,-48,-43,-63,-128,-38,-10,-15
15:40:47.165138,32,64,40,37,-20,-8,1,6
15:40:47.166136,18,34,25,-51,-128,-14,15,13
15:40:47.181129,-10,1,20,40,-52,37,-6,-7
15:40:47.188125,-19,-43,-54,-31,-41,-63,-8,-6
15:40:47.203113,-9,-11,-37,-52,55,0,-4,-3
15:40:47.211112,29,51,30,-19,-71,-6,2,7
15:40:47.226099,9,11,-9,-15,-6,-21,0,2
15:40:47.226099,-2,4,9,-33,-99,5,-2,-3
15:40:47.241090,9,9,-12,-50,-38,-14,1,-1
15:40:47.248085,5,9,18,32,35,4,-3,2
15:40:47.263076,0,-1,-4,-6,5,-5,-1,0
15:40:47.270073,2,3,6,4,11,6,-1,1
15:40:47.286064,1,0,0,2,0,1,-4,-3
15:40:47.286064,-4,2,3,6,7,-9,13,6
15:40:47.308048,-3,-1,-5,-3,-1,5,4,-10
15:40:47.309048,24,15,4,3,4,-5,-5,-19
15:40:47.323039,-70,-11,4,9,3,-18,57,-79
15:40:47.331033,40,13,13,11,30,72,-125,127
15:40:47.346025,21,-12,-1,2,-3,38,127,-103
15:40:47.346025,37,31,7,-3,4,-21,-94,127
15:40:47.361018,-128,-37,11,24,21,71,113,-81
15:40:47.368014,64,-88,-27,-32,-24,-46,-128,127
15:40:47.383004,114,93,8,8,-32,-15,127,-81
15:40:47.390996,-128,-83,-3,8,3,-65,-128,-128
15:40:47.405987,-4,-41,-80,-79,-107,-99,127,-30
15:40:47.405987,-44,41,30,22,41,-11,6,-53
15:40:47.420981,4,3,-2,-6,15,36,-26,-26
15:40:47.427976,-39,-1,-4,-2,-1,-12,-20,-42
15:40:47.442967,-21,-10,-24,-71,-86,-27,-30,-11
15:40:47.450959,-52,-59,-37,-128,-128,4,12,21
15:40:47.465950,61,-24,16,104,74,47,5,18
15:40:47.465950,54,48,-3,19,-32,14,12,57
15:40:47.480944,-14,-14,12,127,127,-22,-20,1
15:40:47.487939,50,39,81,-57,-19,115,-76,10
15:40:47.502929,-128,57,-108,62,-128,-36,127,-128
15:40:47.510925,39,17,13,-11,57,-128,80,15
15:40:47.525916,-33,36,-25,-128,-70,-34,24,-63
15:40:47.525916,67,-38,-102,-128,-128,10,-11,-28
15:40:47.540906,58,2,41,23,127,6,-24,10
15:40:47.547901,-37,-3,13,4,-128,-34,-28,-2
15:40:47.562892,127,-7,5,14,92,-8,-62,126
15:40:47.570887,-16,7,2,88,38,16,-33,-16
15:40:47.585875,-15,-2,-4,50,86,-5,-119,-13
15:40:47.586878,-10,-12,-46,-98,-128,-38,44,20
15:40:47.600869,-54,-16,-50,-128,-128,-61,94,-15
15:40:47.607864,-85,-6,-101,-128,127,-16,-27,-57
15:40:47.622852,45,13,35,79,127,51,-60,127
15:40:47.630851,127,27,49,122,127,127,48,75
15:40:47.645841,52,3,-55,127,127,84,-128,-1
15:40:47.646839,-29,-9,-128,-128,73,-58,22,-24
15:40:47.667826,-81,-27,107,127,127,-18,-22,-56
15:40:47.668824,80,8,-10,127,-102,10,23,-4
15:40:47.683814,79,27,26,52,96,50,23,39
15:40:47.691810,16,20,61,-13,-39,56,15,-20
15:40:47.705802,18,5,0,-35,22,17,-27,54
15:40:47.706804,-13,4,27,-53,54,-35,0,-11
15:40:47.720795,28,3,9,-25,127,15,21,42
15:40:47.728790,-77,-20,-62,40,-2,-23,3,-59
15:40:47.743781,-11,-5,19,-39,86,-28,-75,26
15:40:47.750773,39,17,25,53,107,45,16,14
15:40:47.765764,16,15,-6,-128,-128,-37,43,81
15:40:47.765764,-21,-11,30,127,105,5,-10,-26
15:40:47.780755,-57,-12,-30,77,54,-8,-3,-44
15:40:47.787749,12,6,-7,-128,-27,3,-15,4
15:40:47.802743,6,-2,-14,25,46,-6,-81,-3
15:40:47.810736,-33,7,3,-128,-128,-33,32,-30
15:40:47.825730,-19,-17,16,127,127,8,-6,-17
15:40:47.833722,5,6,-8,62,-128,-24,-1,2
15:40:47.840720,-11,-5,-10,-31,-56,4,16,-25
15:40:47.847713,-10,9,3,4,-8,12,-25,22
15:40:47.862707,-6,7,-3,49,89,20,19,-1
15:40:47.870699,-20,2,1,-35,-117,-38,-29,-44
15:40:47.885693,-10,-5,-6,31,13,-26,-13,-16
15:40:47.885693,-14,2,-18,-38,-109,-19,5,-36
15:40:47.900680,-2,-3,5,69,-97,8,6,2
15:40:47.908677,-19,-11,-11,-110,60,1,41,-6
15:40:47.923667,-7,0,1,48,34,5,-26,-13
15:40:47.930662,5,5,-2,-7,-69,22,24,28
15:40:47.945654,1,-1,11,8,-31,-4,0,6
15:40:47.952651,3,4,17,57,-3,3,-41,-3
15:40:47.967640,2,-5,2,6,-108,-28,-9,-4
15:40:47.968638,-19,-3,3,76,127,17,25,-26
15:40:47.983632,20,5,2,-30,-77,-12,7,19
15:40:47.990624,0,1,6,31,95,6,6,-4
15:40:48.005615,13,-4,-7,-6,53,9,13,12
15:40:48.013614,9,10,5,-11,19,2,26,30
15:40:48.028603,-5,1,6,-47,-128,2,4,1
15:40:48.028603,-7,-7,5,117,70,1,-1,-12
15:40:48.043591,-1,-4,-16,-52,20,-3,-13,-6
15:40:48.050587,4,3,-13,26,69,11,4,-2
15:40:48.065581,3,-3,13,1,104,2,-1,4
15:40:48.073573,-8,1,-17,-7,18,-4,-15,-16
15:40:48.088564,1,4,8,43,46,8,2,19
15:40:48.088564,2,1,-1,21,-13,-4,1,3
15:40:48.103557,-14,-2,-3,-36,-93,-15,-21,-25
15:40:48.110550,-7,-4,1,40,39,13,4,-1
15:40:48.125541,22,11,12,98,86,37,16,19
15:40:48.133536,-10,-8,-4,-25,-64,-23,-13,-10
15:40:48.155522,-1,0,2,-23,-128,-7,7,2
15:40:48.156521,-1,-3,-5,-16,22,7,18,14
15:40:48.163517,-10,-6,-2,18,32,-4,-24,-10
15:40:48.170516,3,-1,1,-11,-13,-5,-5,-5
15:40:48.185504,-9,7,1,-3,-9,5,6,11
15:40:48.193502,2,2,3,21,26,-7,-15,-6
15:40:48.208490,-3,-3,-3,6,-30,-14,-9,-11
15:40:48.208490,0,2,-3,-79,-14,1,0,2
15:40:48.223481,-5,-4,-4,-38,-86,-11,-6,-1
15:40:48.230476,4,1,5,45,66,1,1,6
15:40:48.245467,-5,-3,-1,5,-69,-20,-25,-15
15:40:48.253461,3,-4,-3,-13,-81,-12,1,0
15:40:48.268452,-1,2,0,2,13,14,21,-10
15:40:48.268452,-4,-4,-1,-1,26,8,8,-8
15:40:48.283443,0,-3,-7,-60,-54,-16,0,1
15:40:48.290441,-9,-8,-7,6,-52,-16,-12,-10
15:40:48.305430,9,1,6,26,28,12,14,16
15:40:48.313425,2,-1,2,6,77,14,22,11
15:40:48.328415,3,-2,-4,-1,9,-18,-2,6
15:40:48.328415,-9,-4,-3,-4,18,5,1,-8
15:40:48.343406,5,0,-3,1,4,2,1,10
15:40:48.350402,-7,-6,-2,-2,-4,12,47,-18
15:40:48.365393,1,3,0,-1,-3,-1,3,4
15:40:48.373387,-5,0,-2,-2,-3,2,-1,-5
15:40:48.388378,-7,-4,-3,-4,-3,7,6,-2
15:40:48.388378,0,-1,3,1,13,-9,-9,-2
15:40:48.403369,2,2,5,26,10,-5,4,-2
15:40:48.410366,-3,-4,-3,44,29,-8,8,-3
15:40:48.425355,2,6,0,19,20,-3,-10,0
15:40:48.433353,0,0,-3,-6,7,4,13,13
15:40:48.448341,1,0,0,7,5,-2,6,10
15:40:48.448341,0,-1,-7,-77,-16,-1,-5,-3
15:40:48.470327,-4,-4,1,9,-14,-6,-6,-4
15:40:48.471328,-3,3,-1,9,10,-4,-6,-6
15:40:48.485319,-1,-2,-3,-21,-27,-1,-13,3
15:40:48.493313,5,2,2,30,63,11,14,24
15:40:48.508307,-10,-6,-6,2,26,-9,-10,-13
15:40:48.508307,9,6,1,-7,5,1,23,46
15:40:48.530290,-3,-5,-2,-1,-1,0,-7,-13
15:40:48.531289,-1,3,-1,-2,-5,-5,-3,-2
15:40:48.545283,-1,-1,-2,0,-4,-3,-1,1
15:40:48.553276,5,-1,-5,-2,-4,3,1,2
15:40:48.568267,-4,2,0,1,0,-7,-11,-6
15:40:48.568267,0,-3,0,30,11,-3,-2,-5
15:40:48.583260,0,-3,-3,6,-101,-6,-7,-1
15:40:48.590252,-5,-6,4,-3,69,-9,-25,-12
15:40:48.613239,4,1,-2,2,10,-15,-26,19
15:40:48.614241,0,0,3,-4,-5,4,1,-3
15:40:48.628229,-1,-2,2,6,1,2,3,3
15:40:48.629231,5,5,3,3,3,1,10,9
15:40:48.643220,-3,-5,-1,0,-5,-4,-13,-4
15:40:48.650217,-6,-4,-3,-7,5,3,-4,-7
15:40:48.665212,-3,-2,2,16,-11,-4,-6,0
15:40:48.673204,-2,-3,-5,-8,-30,-2,-6,-3
15:40:48.688191,-2,0,-3,-9,22,1,-5,-3
15:40:48.689194,-4,-3,1,21,12,-5,-10,-7
15:40:48.703182,-3,-3,-5,3,-54,-4,-1,-3
15:40:48.711181,2,0,3,4,3,-4,-15,-3
15:40:48.726171,0,-1,-4,-4,-10,-16,-20,-5
15:40:48.733167,-1,-1,-3,0,-4,6,18,0
15:40:48.748155,-1,2,-1,-5,-3,2,-2,-1
15:40:48.749157,-2,-2,-1,6,12,-7,-2,-1
15:40:48.771141,0,0,1,17,15,2,1,7
15:40:48.778136,-4,0,2,2,-7,-3,-16,-13
15:40:48.785131,-5,-5,-6,-2,2,0,-3,0
15:40:48.793127,1,1,0,-1,-35,4,-2,-3
15:40:48.808117,-1,-2,-3,0,-2,-1,-3,-5
15:40:48.809117,2,2,0,-1,3,7,1,-1
15:40:48.823111,-3,0,3,-1,2,0,-2,0
15:40:48.831106,-2,-2,0,-2,-5,-2,-1,0
15:40:48.846094,-5,-1,0,-1,-16,-19,-15,-4
15:40:48.853091,0,-3,-3,-8,5,1,-11,-1
15:40:48.868080,9,0,-1,-28,-16,-5,4,8
15:40:48.876077,-4,-3,-2,22,5,-2,-4,-3
15:40:48.891066,-4,-4,-5,7,-6,-5,-6,-6
15:40:48.891066,2,2,0,2,4,10,4,6
15:40:48.906059,-3,0,-1,-1,1,-3,10,-8
15:40:48.921049,-1,-3,-1,-4,-5,-5,-6,-2
15:40:48.928044,1,-2,5,2,-3,-6,-5,3
15:40:48.936044,-3,-2,-3,-3,1,-7,-5,-5
15:40:48.951028,-1,-3,-4,-2,2,-1,-12,-1
15:40:48.951028,1,-3,2,-1,-8,-4,-2,-5
15:40:48.966019,-1,-2,-3,-2,2,1,-1,0
15:40:48.973015,0,-1,-2,-1,4,1,1,-3
15:40:48.988006,0,-2,0,2,0,1,0,-1
15:40:48.996001,-2,1,-1,-4,-3,-1,1,0
15:40:49.010994,-2,-3,3,3,-10,-4,-3,-5
15:40:49.010994,3,0,-1,-3,6,1,0,0
15:40:49.025983,0,-2,-2,-4,1,-2,-1,0
15:40:49.032981,0,-2,-2,-5,-4,1,0,3
15:40:49.047969,0,-2,2,5,6,2,-2,1
15:40:49.055968,-3,-1,-2,-8,-1,-4,-1,-3
15:40:49.070954,0,-3,2,27,0,1,2,0
15:40:49.070954,-1,-2,-2,2,-52,-5,-3,1
15:40:49.085945,-1,-1,-5,4,-2,2,6,-2
15:40:49.092941,-1,-1,0,6,-2,-3,-2,1
15:40:49.107931,-4,-3,-2,-6,2,-2,0,-3
15:40:49.115926,0,1,1,-3,-1,2,-3,-2
15:40:49.130920,2,-1,0,-2,-3,-1,-8,-4
15:40:49.130920,-4,0,0,-1,-4,-5,-4,-4
15:40:49.145911,-1,1,-3,-6,2,1,-3,-3
15:40:49.152906,-2,-1,-1,1,-2,0,-2,-7
15:40:49.168897,-2,-1,0,-5,1,-1,0,-2
15:40:49.175893,-3,1,0,10,2,-1,-2,-4
15:40:49.197879,-4,-4,-1,-29,-31,-6,1,-2
15:40:49.198878,-2,-1,-2,5,10,-1,-10,-4
15:40:49.205873,2,-4,0,-1,4,5,4,0
15:40:49.212869,1,-1,-4,-6,-1,-1,1,1
15:40:49.227860,0,0,-2,2,1,3,1,-1
15:40:49.235855,-2,-1,-3,1,3,3,-2,2
15:40:49.250842,-3,-2,0,0,-4,-3,-3,-2
15:40:49.250842,4,3,5,1,8,9,3,4
15:40:49.265836,2,0,1,-3,2,0,-1,-1
15:40:49.272829,0,-3,-1,14,2,-2,-2,-1
15:40:49.287823,-5,-5,-1,-28,1,-4,-3,-2
15:40:49.295818,-1,2,0,4,9,0,0,-3
15:40:49.310809,-3,-4,-4,-4,-5,-1,0,-6
15:40:49.311808,-1,-1,-4,-3,-5,-3,7,4
15:40:49.325799,-3,-1,-1,19,2,-4,-6,-4
15:40:49.332795,1,0,2,-8,-16,-8,-10,-2
15:40:49.347784,-3,-3,-2,9,12,2,-3,0
15:40:49.355781,0,-3,0,-4,-5,-3,0,-4
15:40:49.370772,-3,0,-3,-4,-5,-1,-1,-2
15:40:49.370772,0,1,-1,-7,-1,-3,0,-1
15:40:49.385762,-4,0,2,5,-1,-2,-1,0
15:40:49.392757,-3,-1,-2,-6,4,-3,-1,-3
15:40:49.407746,-3,-2,-4,-3,-3,-3,-5,-6
15:40:49.415743,-1,-2,-1,-6,2,-3,-5,-4
15:40:49.430734,-3,0,-1,0,-16,-3,-4,-9
15:40:49.431734,1,-5,0,-1,3,2,1,5
15:40:49.445724,-1,-2,0,-4,0,-2,0,-2
15:40:49.452718,-1,1,3,2,2,1,2,-1
15:40:49.468711,-2,0,2,1,-5,-4,-2,-1
15:40:49.475707,0,-2,-3,-1,-1,0,-2,0
15:40:49.490697,-2,-2,-1,0,-5,-1,-2,-2
15:40:49.490697,1,2,-1,7,-1,-2,-7,-5
15:40:49.505685,2,-1,-3,-4,8,2,3,1
15:40:49.512680,-1,-4,-3,18,5,-2,-5,-4
15:40:49.528670,4,0,2,-22,-10,-4,-2,1
15:40:49.535669,-2,-1,0,5,6,-2,-3,-3
15:40:49.557653,1,0,-3,-1,3,8,-4,-7
15:40:49.558655,0,-1,-2,-1,-4,-1,-1,-1
15:40:49.565651,-2,-1,-1,2,-7,-2,0,1
15:40:49.572646,-1,0,-2,-1,-2,-3,-2,-1
15:40:49.588636,-1,0,0,0,4,-1,-2,-5
15:40:49.595629,-1,2,0,-2,2,4,1,3
15:40:49.610620,0,0,0,0,3,1,2,-1
15:40:49.611622,0,0,0,-2,-5,-2,-3,-1
15:40:49.625610,-1,1,-1,2,6,1,-2,-1
15:40:49.640604,-2,-1,0,-1,-10,-2,-7,-4
15:40:49.648598,0,1,1,-1,-1,-1,0,0
15:40:49.655592,1,-2,-1,-1,-1,4,6,0
15:40:49.670583,0,-5,-2,2,-1,-3,1,1
15:40:49.671585,-2,-2,-2,-1,-4,-1,-4,-7
15:40:49.685573,0,3,-1,2,-2,-3,-2,-3
15:40:49.693568,-3,0,0,2,0,0,1,1
15:40:49.708560,2,0,-1,0,2,0,2,1
15:40:49.715555,0,1,1,3,0,-1,-1,1
15:40:49.730546,1,1,0,20,11,3,0,1
15:40:49.731545,-3,-5,-4,-7,-15,-6,-2,-2
15:40:49.753532,0,-2,-4,1,2,-2,-1,-3
15:40:49.753532,2,2,2,-1,5,3,1,3
15:40:49.768522,-2,-1,-1,-8,9,-1,-1,-3
15:40:49.775521,1,-1,-1,0,-15,-8,-1,-1
15:40:49.790511,-5,-4,-4,-5,5,-1,-9,-2
15:40:49.791508,3,-1,0,-2,-2,1,4,2
15:40:49.805499,-3,-4,1,-6,-9,-5,-5,-3
15:40:49.813497,0,0,-1,2,2,-1,0,1
15:40:49.835483,-1,-1,-2,-2,1,-1,0,-1
15:40:49.836480,-1,0,-1,-3,0,-1,-1,-2
15:40:49.850474,-1,-3,-5,-5,-3,-1,-2,-1
15:40:49.858469,-4,-1,-5,-3,-5,1,-3,-2
15:40:49.873458,1,2,1,1,8,0,3,0
15:40:49.880455,0,1,-1,1,-6,-5,3,1
15:40:49.888450,2,2,-1,-10,-6,-3,-1,-3
15:40:49.895446,0,2,3,3,5,2,1,0
15:40:49.910437,1,1,-1,-3,-1,-3,-2,0
15:40:49.918432,1,3,1,4,-1,-5,3,3
15:40:49.933420,-3,0,-4,0,-6,0,10,-1
15:40:49.933420,-2,-2,-1,-4,-2,-1,-1,-2
15:40:49.948410,-2,-2,0,3,1,2,-3,-3
15:40:49.955407,2,0,1,2,6,-3,-1,0
15:40:49.970400,0,1,2,1,-2,-6,-6,-4
15:40:49.978394,0,-1,0,5,11,11,0,2
15:40:49.993385,1,0,0,-1,-3,0,3,0
15:40:49.994384,3,1,2,2,5,2,4,1
15:40:50.008374,-3,-1,-1,0,-2,-4,-2,-3
15:40:50.015370,2,0,1,-3,1,-1,1,1
15:40:50.030362,-5,-3,-4,-2,0,2,0,-3
15:40:50.038357,1,-2,-1,-1,-4,-2,-3,-1
15:40:50.053348,0,-2,-2,-8,1,0,12,-1
15:40:50.053348,-4,-7,0,0,-1,0,-2,-6
15:40:50.068339,2,4,-1,0,-3,-2,1,0
15:40:50.075333,0,2,-2,-1,1,1,5,4
15:40:50.090322,-3,-1,-2,0,2,0,-1,-1
15:40:50.098320,3,4,2,-2,-5,-1,2,4
15:40:50.113311,2,1,0,-2,-2,2,1,3
15:40:50.113311,-2,0,-1,2,1,-5,0,2
15:40:50.135297,1,-2,-2,0,-6,-5,3,1
15:40:50.136296,2,0,-1,-4,-8,-2,0,2
15:40:50.150286,-2,-1,-3,1,0,-4,-3,-3
15:40:50.158283,2,-2,-4,-3,4,5,2,2
15:40:50.173274,4,-1,2,1,-5,-8,-6,5
15:40:50.173274,-4,2,-3,-2,3,-1,0,-1
15:40:50.188265,-2,-3,-2,-4,-4,-2,-1,0
15:40:50.203255,-1,-3,0,-2,-4,0,-1,-3
15:40:50.211251,0,-2,-1,0,4,9,2,0
15:40:50.218246,-3,3,-1,0,-1,0,-15,-6
15:40:50.233237,1,0,-1,2,2,2,-2,0
15:40:50.240231,-3,-5,-4,-4,-4,-2,-2,-3
15:40:50.248227,-6,-6,-3,-4,-8,-1,-6,-9
15:40:50.255221,-2,-1,-1,2,-4,2,1,-2
15:40:50.271213,-6,-2,-1,-3,3,0,-1,1
15:40:50.278209,2,0,-2,2,-3,-6,-3,-1
15:40:50.293199,-3,2,-1,-3,-4,-4,0,-2
15:40:50.294196,-1,-4,0,1,1,-1,0,-2
15:40:50.308189,-2,1,-3,-1,-2,0,3,2
15:40:50.315186,4,0,2,2,10,3,13,-2
15:40:50.331175,-4,0,-1,-3,-3,-2,-1,-2
15:40:50.338168,-1,-2,-2,3,1,-1,-9,-4
15:40:50.353162,3,0,-2,-4,-5,-1,2,7
15:40:50.361157,1,-1,3,6,7,2,2,-3
15:40:50.368150,1,-1,-4,-14,-10,-5,-1,0
15:40:50.376145,0,-3,-3,5,11,-3,2,0
15:40:50.391136,2,-3,0,-4,-3,-3,-1,-4
15:40:50.398134,-1,-1,-3,-1,-5,1,-2,0
15:40:50.413122,-3,2,-2,-4,-4,0,-1,0
15:40:50.414124,0,-2,0,-2,-5,-8,-18,-4
15:40:50.428113,1,0,-1,-3,-1,1,2,0
15:40:50.436108,-2,-3,0,-1,-5,-8,-4,-4
15:40:50.451100,1,3,0,1,5,1,0,-1
15:40:50.458094,-3,-2,-2,-5,-17,-6,-11,-5
15:40:50.473085,-3,-1,-2,0,2,1,-3,-2
15:40:50.474085,1,0,-1,0,3,7,1,-1
15:40:50.488076,0,-2,0,-2,-1,-1,1,-1
15:40:50.496073,1,4,1,4,3,4,0,1
15:40:50.511061,0,-1,-2,-10,-3,-9,-13,1
15:40:50.518060,-1,1,-3,2,-5,0,3,0
15:40:50.533048,-2,-1,-4,-6,0,-5,-3,-4
15:40:50.534050,-1,1,-1,-2,-2,2,0,1
15:40:50.556034,-1,-4,-3,-5,-3,-6,-6,-5
15:40:50.556034,1,1,1,3,2,3,1,1
15:40:50.571025,1,-4,0,1,-3,-1,1,-1
15:40:50.578022,-1,-4,-1,-4,-6,-5,-3,-2
15:40:50.593010,-1,1,1,-1,0,-5,-2,-1
15:40:50.594014,-2,-2,-1,-3,-1,-1,-8,-1
15:40:50.608004,1,-2,-2,-1,-3,-5,-19,0
15:40:50.615999,-2,-1,-1,-2,-7,-1,3,3
15:40:50.630990,-2,-1,-1,-1,0,0,-2,-2
15:40:50.637985,-2,-2,-2,0,-2,-2,0,-3
15:40:50.667967,-1,-3,-1,-3,-1,2,4,-2
15:40:50.675959,-1,-1,-1,1,0,0,0,-1
15:40:50.682957,-6,-1,1,-3,0,0,-4,-2
15:40:50.683954,1,0,-3,-1,-3,-1,-1,1
15:40:50.690951,-1,1,2,0,1,1,1,0
15:40:50.697945,0,-4,0,0,-7,0,4,1
15:40:50.712936,1,3,1,2,2,-3,8,0
15:40:50.713936,0,-1,-1,-1,-2,-1,1,0
15:40:50.727928,-2,-3,-2,-5,-1,0,1,-1
15:40:50.735922,0,-3,-2,-1,-3,-2,-1,0
15:40:50.750913,0,0,1,-3,-5,-5,-3,0
15:40:50.757908,0,-1,-1,2,-4,0,-2,-3
15:40:50.780894,1,0,-3,-2,0,-1,-2,-1
15:40:50.780894,-2,0,0,2,2,1,2,1
15:40:50.795885,-2,-6,-3,-3,-17,-3,-3,-1
15:40:50.795885,-3,-1,-5,-4,1,-3,2,-1
15:40:50.810875,-3,-1,-1,-2,2,-3,-3,-3
15:40:50.817872,-5,-2,-1,-2,-6,-2,-1,-3
15:40:50.832862,-2,1,1,6,3,-4,-1,-2
15:40:50.840857,-3,-1,-3,-1,0,0,-2,-4
15:40:50.862843,-1,-1,-1,1,-1,4,3,3
15:40:50.863843,-1,-1,-1,-3,-3,-2,1,3
15:40:50.870838,0,3,-1,0,1,-4,-1,-3
15:40:50.878836,1,-1,-1,-2,-5,-5,-1,2
15:40:50.892825,1,-1,-1,-1,-1,0,-2,-2
15:40:50.900819,1,1,1,3,4,1,2,2
15:40:50.915811,-2,0,0,-4,-3,-6,2,0
15:40:50.915811,0,-2,-2,-1,-9,-4,1,1
15:40:50.930805,1,3,2,3,10,-4,-2,1
15:40:50.937797,-2,-3,-2,-1,-1,3,0,-4
15:40:50.952787,-3,-1,-3,-1,1,3,-1,-2
15:40:50.960783,-1,2,-3,-1,0,0,2,3
15:40:50.975773,-1,1,1,-1,4,-4,0,1
15:40:50.976775,1,0,-3,-3,-3,-4,-4,1
15:40:50.990767,-2,0,-1,0,2,3,-4,-2
15:40:50.997762,-3,-2,-4,1,0,-2,5,2
15:40:51.012751,1,-1,0,-1,-2,-6,0,2
15:40:51.020748,-4,-3,-3,-1,-2,-2,0,0
15:40:51.035739,1,0,3,3,3,-1,0,0
15:40:51.035739,-4,2,0,0,4,2,-1,-2
15:40:51.050730,0,-2,-2,-2,4,0,-3,-2
15:40:51.058725,2,2,1,5,3,-1,0,3
15:40:51.072714,-2,-1,-4,-2,-4,-1,1,-1
15:40:51.080708,-1,-1,-1,1,0,1,1,0
15:40:51.095699,2,1,0,0,-8,-1,-4,0
15:40:51.096700,-4,-2,-2,-4,-4,-2,-2,-1
15:40:51.110689,0,2,-3,-1,5,-1,-1,0
15:40:51.118684,0,-2,0,-1,-1,-1,0,1
15:40:51.133679,-3,0,-3,-1,-1,0,-1,-1
15:40:51.140671,1,-2,0,1,0,-2,1,0
15:40:51.155662,0,-2,-4,-2,1,-1,2,-3
15:40:51.156664,-1,0,-4,-6,-3,0,-1,0
15:40:51.170652,-1,-3,-4,-4,-1,-5,-2,-4
15:40:51.185646,-1,0,-2,3,-7,-4,-1,0
15:40:51.193643,0,-1,-1,-2,0,1,0,-4
15:40:51.200637,2,-2,-2,0,-2,-2,2,-1
15:40:51.215624,2,-2,-1,1,0,0,0,1
15:40:51.215624,-2,-1,-4,-5,-5,-5,-3,-4
15:40:51.230615,-2,-2,-3,-5,-1,0,-3,-1
15:40:51.237621,-3,-3,-3,-6,-8,-2,0,-1
15:40:51.253603,0,-2,1,1,7,2,-1,-2
15:40:51.260600,1,0,0,-5,1,3,1,2
15:40:51.275587,-2,0,-2,-1,-6,-1,-1,1
15:40:51.276586,0,0,2,0,-1,-1,0,3
15:40:51.290578,-3,1,3,-2,-1,-1,2,0
15:40:51.298576,-2,-2,0,3,0,-1,1,1
15:40:51.313567,1,2,1,2,7,3,3,0
15:40:51.320562,1,3,1,0,5,4,3,3
15:40:51.343545,-1,-2,-3,1,4,6,1,-1
15:40:51.343545,0,-1,-1,0,-3,-3,-1,-4
15:40:51.350544,-1,2,-2,-2,-1,-1,-3,1
15:40:51.358539,0,1,2,3,-6,2,2,7
15:40:51.373527,-5,-2,3,0,0,0,-3,-5
15:40:51.380525,-5,-2,-3,0,-6,0,1,-3
15:40:51.395513,0,-6,-2,-3,2,-4,-4,1
15:40:51.396512,0,0,-3,-2,-1,-5,-1,-1
15:40:51.410504,2,-1,-2,-1,-3,-2,-1,1
15:40:51.418502,1,-1,-2,-4,-3,-3,-1,-3
15:40:51.433489,-2,0,-1,-1,-5,-2,-2,-1
15:40:51.440486,-2,-4,-3,1,-6,2,-1,2
15:40:51.455475,-2,-2,1,-1,-1,-5,-2,-4
15:40:51.456475,-4,-3,-1,-4,-5,-2,0,1
15:40:51.470468,1,1,-1,0,-1,-4,1,3
15:40:51.478462,-1,-5,0,2,0,1,-1,-1
15:40:51.500451,-3,-2,-2,-2,-7,0,-2,2
15:40:51.501448,3,-2,0,-3,0,-4,-3,-1
15:40:51.515441,-2,1,-1,1,2,0,-1,-1
15:40:51.516438,-2,0,-3,1,0,-2,1,-1
15:40:51.530430,-1,1,-1,-1,-2,0,-2,-3
15:40:51.538427,-1,-1,0,2,-1,-1,-2,1
15:40:51.553415,1,-2,-5,1,4,3,1,3
15:40:51.560410,1,3,-2,0,2,1,1,-2
15:40:51.583397,0,-1,0,-2,-5,-2,0,2
15:40:51.583397,-1,2,-2,-1,0,1,-2,-3
15:40:51.598387,-3,-2,-4,-4,-4,2,-3,-3
15:40:51.598387,0,0,-2,-1,-3,-2,2,-1
15:40:51.613378,-4,-1,-5,-3,-5,-5,-4,-2
15:40:51.620374,1,-2,0,-1,-2,-1,1,4
15:40:51.635364,2,2,1,1,3,1,0,-2
15:40:51.636364,-2,-4,-3,0,0,1,1,1
15:40:51.650356,-5,-2,-1,-1,-5,0,0,-4
15:40:51.658353,0,0,-2,0,-4,-2,-1,-2
15:40:51.673343,-1,0,-3,0,0,-4,-1,-3
15:40:51.681335,-3,-1,-5,-3,-2,1,-1,-4
15:40:51.695327,-1,-1,-1,3,5,1,0,0
15:40:51.696329,0,1,-3,0,1,0,0,-2
15:40:51.710317,0,1,-1,-1,0,0,0,2
15:40:51.718313,1,-1,-1,-1,0,-1,-3,4
15:40:51.733306,1,-3,-1,-2,4,-1,-1,-1
15:40:51.741300,-4,-3,-1,-2,-12,0,2,-3
15:40:51.755298,-2,-2,-1,0,6,-3,1,-2
15:40:51.763288,-1,-1,-1,-4,-4,0,-1,-1
15:40:51.778279,2,-3,2,1,1,1,0,-2
15:40:51.779278,-1,0,-2,-2,-3,2,-1,2
15:40:51.793270,2,-4,-3,-2,0,1,-1,-2
15:40:51.800264,-1,-3,-1,-2,-2,-3,2,-1
15:40:51.816255,-3,-1,2,-1,0,1,2,-4
15:40:51.823250,1,0,2,5,8,3,1,0
15:40:51.838241,-3,1,-3,-6,-1,0,-1,-1
15:40:51.838241,2,-1,-2,0,1,4,0,-3
15:40:51.853232,-2,-2,1,-1,0,1,-3,0
15:40:51.861227,-3,0,-1,-1,-1,-1,3,-2
15:40:51.876217,0,0,-2,-3,-2,-4,0,-2
15:40:51.891205,-3,-3,1,-2,1,0,-3,-2
15:40:51.898204,1,2,1,4,10,7,2,4
15:40:51.899203,0,-2,-2,-2,-3,0,0,-1
15:40:51.913195,1,1,-3,-1,-3,2,-1,-4
15:40:51.920190,-4,-1,-2,-4,-4,-4,-2,-1
15:40:51.936181,-2,-2,0,0,1,-1,2,-1
15:40:51.943175,2,2,0,-1,0,-2,-6,1
15:40:51.958167,2,1,3,-2,1,-3,-2,0
15:40:51.959165,-2,0,0,-2,-11,-2,-1,-1
15:40:51.973157,1,0,-1,2,5,3,2,-1
15:40:51.981153,0,0,-1,-2,0,-1,-1,-1
15:40:51.996143,1,0,-1,0,0,2,-1,0
15:40:52.003139,-1,1,1,1,3,2,0,2
15:40:52.018130,2,-1,-3,-2,0,-2,0,-1
15:40:52.019130,-1,1,1,-3,-1,-1,-2,3
15:40:52.033120,1,0,-2,-1,-1,1,1,-1
15:40:52.041115,-2,-2,-1,-3,-2,2,0,-1
15:40:52.056106,-1,-1,-1,0,0,0,0,1
15:40:52.063102,-2,-1,-3,1,4,-1,-2,-3
15:40:52.078093,-1,-2,-1,-4,-6,-3,-4,-4
15:40:52.079092,-1,-1,-2,-1,-1,-2,0,2
15:40:52.093083,-2,2,-3,-3,-5,0,0,-3
15:40:52.101078,-4,0,-3,-4,-10,-1,1,-1
15:40:52.123061,-1,-4,-3,-2,-4,1,-2,-4
15:40:52.124062,1,-2,-3,-1,0,-2,0,-3
15:40:52.138055,-2,-2,-1,0,2,0,0,-3
15:40:52.139054,-4,-6,-2,-4,-8,-4,-4,-2
15:40:52.153045,1,-3,3,2,2,-2,1,3
15:40:52.161041,-3,-3,0,-1,0,-2,0,0
15:40:52.176029,-3,0,1,1,0,0,1,-1
15:40:52.183027,-2,1,2,2,5,3,0,2
15:40:52.198018,0,-3,-2,0,-2,-2,-1,-1
15:40:52.199017,3,-1,1,-1,1,0,3,0
15:40:52.213008,-1,-1,0,-2,-9,-9,-5,-2
15:40:52.221003,0,-2,-2,3,-1,1,1,0
15:40:52.235995,-1,-3,-4,-2,2,-3,-2,-2
15:40:52.242989,2,-2,0,-2,-5,0,0,-1
15:40:52.257978,-2,1,-1,-3,-4,0,0,0
15:40:52.258977,-3,-2,-1,0,-8,-3,-1,1
15:40:52.272971,-4,2,-1,-1,-2,0,0,-1
15:40:52.280967,0,0,-1,-2,1,-4,-1,-5
15:40:52.295957,-1,1,2,-2,2,0,1,-1
15:40:52.302952,-5,-4,0,0,-5,-5,-1,-2
15:40:52.317943,-3,-2,-4,-4,-3,1,-3,1
15:40:52.318943,1,0,1,0,1,2,2,0
15:40:52.332934,-1,-2,-1,-3,-1,0,-2,-3
15:40:52.340926,-2,1,-4,-3,-3,-1,-2,-1
15:40:52.355920,-2,0,4,3,2,2,-1,0
15:40:52.362915,-3,-4,-3,-4,-2,1,-2,0
15:40:52.377906,1,-2,1,1,2,-2,-2,1
15:40:52.378906,2,0,0,1,1,-1,2,0
15:40:52.392896,-2,-3,0,-2,-1,-3,-1,-3
15:40:52.400892,-1,-4,-4,-4,-7,-1,-3,-4
15:40:52.415883,-5,-1,0,0,5,0,2,-3
15:40:52.422877,-4,-1,-3,-2,-3,-2,0,-3
15:40:52.437869,-4,-2,-2,-3,-4,-1,-4,0
15:40:52.438868,1,1,1,0,0,-1,-1,0
15:40:52.452858,-4,-1,0,-5,-4,-1,-3,-2
15:40:52.460855,1,0,-2,-2,-6,-2,-2,-1
15:40:52.475846,-3,-2,-2,-3,4,1,1,-3
15:40:52.482840,-3,-3,1,0,-8,-3,0,-4
15:40:52.497829,1,-1,-2,-1,4,-2,0,-3
15:40:52.498829,-2,-2,-1,-3,-2,1,-5,-2
15:40:52.513825,-3,-3,-1,-1,6,2,-1,-3
15:40:52.535809,-5,-2,-3,-1,-9,-1,-5,-6
15:40:52.535809,-1,1,2,0,3,4,4,3
15:40:52.543803,2,0,0,0,-3,-4,-4,-2
15:40:52.557795,-2,-1,-1,-3,-4,-3,-4,-3
15:40:52.565790,0,1,-2,-4,-7,-1,-1,-3
15:40:52.572782,-2,-2,0,2,6,2,1,-3
15:40:52.580781,-4,2,-3,-3,-3,-2,0,-2
15:40:52.595771,-1,-1,0,1,0,-1,-1,-3
15:40:52.610762,0,-3,1,-4,-1,-4,-2,-2
15:40:52.617757,-1,0,1,3,0,0,-1,1
15:40:52.618755,0,3,-1,-1,3,2,1,4
15:40:52.633748,-3,-1,-1,-2,-1,-1,-1,-4
15:40:52.640743,1,0,-1,-4,-8,-4,-2,1
15:40:52.655734,-3,-4,-2,-1,-2,-2,0,-2
15:40:52.663729,-4,-3,-4,-1,-2,-1,-2,0
15:40:52.678719,-1,-1,-1,6,-4,-3,0,-2
15:40:52.685715,-3,-5,-3,-3,6,0,-2,-5
15:40:52.700707,2,-2,0,-6,-10,-5,-3,2
15:40:52.701705,2,1,-1,-21,2,0,2,3
15:40:52.715697,-4,1,2,6,-3,-5,-2,-3
15:40:52.722693,0,-2,-1,1,-1,1,-2,-2
15:40:52.738683,1,0,1,2,-2,0,1,-2
15:40:52.745679,-2,0,1,-4,-5,-6,-3,-1
15:40:52.760666,1,2,-2,-1,4,-2,-2,-2
15:40:52.761669,0,-4,-3,0,1,0,0,-1
15:40:52.775659,1,0,0,-3,-7,-3,-3,2
15:40:52.782656,2,-3,-1,3,1,0,0,1
15:40:52.813633,-4,-2,-1,-6,-3,0,-5,-3
15:40:52.813633,-2,0,0,-3,0,-1,-3,-3
15:40:52.820632,-1,-1,-2,0,-3,-3,2,0
15:40:52.821636,-1,-1,1,1,-3,-3,-2,-1
15:40:52.842617,7,0,3,1,3,0,1,4
15:40:52.843616,-1,-2,-3,-3,0,-1,0,1
15:40:52.858605,1,3,3,7,-3,4,4,5
15:40:52.865601,0,-2,0,2,-1,-1,-3,-4
15:40:52.880595,-2,-1,-3,1,-2,-1,-1,0
15:40:52.881594,0,0,-2,-1,-2,0,-2,-1
15:40:52.895585,2,0,0,-2,0,0,1,-2
15:40:52.903581,0,-1,3,-1,-2,1,-1,-4
15:40:52.918569,0,-1,-5,-5,0,-4,1,-1
15:40:52.925567,-4,-6,-8,-2,-12,-1,-3,-10
15:40:52.940557,4,1,1,-1,-2,-1,-1,3
15:40:52.941557,-4,-1,-2,-6,-2,-4,-3,-4
15:40:52.955548,0,-2,0,-4,-10,1,0,-1
15:40:52.963548,-2,0,-1,1,1,-2,-2,-1
15:40:52.978534,-3,2,0,-3,-1,-1,-1,-4
15:40:52.985529,-2,1,0,-1,-1,-1,-2,-3
15:40:53.000520,1,-1,-2,-5,-5,-1,-3,-2
15:40:53.001519,5,2,1,5,9,5,1,6
15:40:53.015511,-1,3,1,-2,0,-1,-2,-2
15:40:53.023503,-3,1,-3,1,-1,-2,-2,-2
15:40:53.038494,2,0,-1,-3,-3,1,-2,-2
15:40:53.045490,-2,0,-4,-1,4,-1,-3,-3
15:40:53.060480,-1,-1,-3,3,-2,-2,0,-2
15:40:53.061482,1,-2,-1,-1,-6,-6,1,-4
15:40:53.075472,-5,-1,-2,-5,2,0,-1,-1
15:40:53.083469,-3,-4,-4,-3,-5,-2,-1,-3
15:40:53.105455,3,1,2,0,6,-3,-3,-1
15:40:53.106452,-2,-5,-3,-8,-11,-1,-5,-2
15:40:53.120446,-3,-1,-1,2,2,-2,-2,-2
15:40:53.121445,-2,0,0,-4,-1,-2,-1,-2
15:40:53.135435,-2,-2,0,-3,1,-3,0,0
15:40:53.143430,1,-2,-3,2,-1,-2,-3,-1
15:40:53.158422,0,-4,1,-3,-3,-1,1,-1
15:40:53.165415,-4,-4,-4,-1,-8,-3,-2,-5
15:40:53.180409,4,-1,-1,-3,0,2,-1,0
15:40:53.181406,3,1,1,5,5,1,1,3
15:40:53.195399,-1,-1,0,5,-1,-1,-2,-4
15:40:53.203394,-3,-2,0,-2,-4,-4,0,-1
15:40:53.218385,-1,-2,0,-3,-9,-2,1,-1
15:40:53.225380,-3,0,-3,-4,-5,-1,-2,-2
15:40:53.248366,-1,-3,-4,-3,-3,-1,0,0
15:40:53.248366,0,-5,-1,-1,-3,2,-1,-6
15:40:53.263357,-3,1,-3,1,5,-1,-2,0
15:40:53.270351,-2,-1,-3,-2,-7,-2,-4,-3
15:40:53.278348,0,-2,-5,-5,-8,-3,0,0
15:40:53.285342,-3,-2,0,0,-4,-2,-1,-3
15:40:53.300334,-1,-2,-1,-3,-7,0,0,-1
15:40:53.301333,-1,-1,0,5,6,-1,-3,-1
15:40:53.315323,0,-4,-1,-1,-1,-2,-2,-3
15:40:53.323320,-3,-3,-6,-1,-4,-4,-1,-3
15:40:53.338311,-2,0,1,-1,4,2,3,2
15:40:53.345305,-1,1,0,-5,-7,-4,-1,-2
15:40:53.361296,-2,0,-2,1,1,1,-1,1
15:40:53.361296,3,-3,-2,-3,-1,2,-3,-2
15:40:53.376287,-5,-2,0,2,-2,1,-1,-1
15:40:53.383283,-1,-1,0,7,-7,-1,-1,-3
15:40:53.398274,-4,-3,-2,2,6,-1,0,0
15:40:53.405270,-1,-2,-3,-3,-2,0,1,-2
15:40:53.420257,-1,-1,-5,-1,-3,-3,-1,1
15:40:53.421257,1,3,-1,-2,-1,-2,0,-1
15:40:53.443246,-2,-3,1,-3,-3,-3,-1,-3
15:40:53.450241,0,5,-1,2,4,0,2,5
15:40:53.458236,-2,-3,-2,-3,-3,0,-3,-1
15:40:53.465231,-3,0,2,2,0,0,-1,1
15:40:53.480223,-1,-1,-1,-3,-5,-3,1,0
15:40:53.481219,-2,-2,-4,3,1,-2,-4,1
15:40:53.496210,-2,-5,-5,-6,-3,-1,-1,2
15:40:53.503205,-1,1,-1,0,-1,-3,-2,-1
15:40:53.525195,-3,-3,-1,-1,0,1,-1,-1
15:40:53.526192,0,-2,-1,-1,2,2,3,-3
15:40:53.548178,1,-1,-1,-2,-1,-2,1,0
15:40:53.549177,-4,-1,-1,-4,-8,-1,-1,-2
15:40:53.555176,-3,1,-2,-5,-6,-3,-3,-2
15:40:53.563171,1,-1,3,-3,-1,-4,0,2
15:40:53.578159,-2,-4,0,2,-2,2,0,0
15:40:53.586156,-2,-1,-1,-7,-3,-1,-1,-2
15:40:53.600158,0,0,-2,0,2,2,3,0
15:40:53.601145,0,-1,-3,0,-2,0,0,-2
15:40:53.616137,3,2,-3,1,1,1,3,0
15:40:53.623134,-2,-2,-2,-2,3,0,2,0
15:40:53.638125,-4,0,3,-3,-11,-4,-4,0
15:40:53.646119,1,-1,-2,4,-4,-2,-1,0
15:40:53.661108,0,0,-3,-4,-5,-2,-2,-4
15:40:53.668106,-2,-3,-1,-6,-8,-1,1,-3
15:40:53.684093,-2,0,1,6,-4,2,-1,1
15:40:53.684093,-2,-1,-1,-5,-1,2,-4,-3
15:40:53.698088,0,-2,0,1,0,-1,1,1
15:40:53.706082,-1,0,-2,-2,-1,-1,-2,1
15:40:53.721073,0,1,0,3,-2,1,-1,1
15:40:53.736064,0,0,0,0,5,1,2,-3
15:40:53.743059,-2,-5,-3,-3,-2,-1,-2,-1
15:40:53.744062,-1,-1,-2,-4,-1,0,0,-1
15:40:53.758050,-1,-4,0,1,-2,0,1,2
15:40:53.766042,-2,-1,-3,-1,2,0,0,0
15:40:53.781036,0,1,-1,0,-2,-3,0,-1
15:40:53.788029,-1,-1,0,-1,-4,2,-1,1
15:40:53.803023,-1,1,-1,2,-1,-1,-2,-1
15:40:53.804022,3,1,-1,2,2,0,2,-1
15:40:53.818013,0,3,-2,0,1,1,0,2
15:40:53.833002,-5,-4,-1,-3,-12,-8,-5,-6
15:40:53.840997,-1,-1,1,-1,-2,0,1,-1
15:40:53.847994,3,1,-2,0,0,-2,-3,-3
15:40:53.862983,2,-1,-4,-4,-4,-2,0,-3
15:40:53.863982,-3,-1,1,4,-2,-2,-1,-2
15:40:53.877975,3,0,3,6,3,1,0,-1
15:40:53.885971,-2,0,-1,-1,1,0,-3,-3
15:40:53.900962,-2,0,1,1,3,3,-1,1
15:40:53.915953,-6,-4,-4,-8,-21,-8,-4,-6
15:40:53.922948,-1,-1,-1,-1,7,1,-2,-1
15:40:53.930943,-7,-4,-5,-1,-5,-4,-6,-4
15:40:53.937939,-3,-3,0,-2,1,1,1,0
