timestamp,emg1,emg2,emg3,emg4,emg5,emg6,emg7,emg8
15:25:19.444370,2,1,2,1,0,-2,-1,-1
15:25:19.459364,-1,0,-1,1,-1,-1,-2,-3
15:25:19.459364,-4,0,-2,-1,-4,-2,-2,-3
15:25:19.474352,0,-2,1,-1,-2,-3,-2,-2
15:25:19.481350,0,0,1,0,-3,-3,-2,0
15:25:19.496341,-1,-1,-1,-1,-10,-2,-3,-4
15:25:19.503333,-5,1,-1,-4,-1,2,-3,-2
15:25:19.518324,2,0,-1,1,1,-2,0,1
15:25:19.519323,-1,-3,2,-1,3,-1,-1,-1
15:25:19.541312,-1,-1,0,-5,-12,-4,-5,-1
15:25:19.542311,0,-1,-4,0,4,1,0,3
15:25:19.556303,-8,-4,-1,-2,0,-1,-2,-4
15:25:19.563300,0,1,-1,-3,-2,-1,-1,-1
15:25:19.579286,-4,-2,0,-3,1,2,3,-3
15:25:19.580285,-3,-4,1,-1,5,2,1,-2
15:25:19.594279,-1,-2,-3,0,-6,-4,-2,-4
15:25:19.601275,-1,1,-1,-3,-2,-1,2,0
15:25:19.616265,0,0,-1,-1,5,0,2,-6
15:25:19.624260,-3,0,-2,-1,-12,-3,-3,-6
15:25:19.638255,-3,-4,-2,-3,3,-1,-1,-4
15:25:19.639249,-3,-1,1,-1,-1,3,0,-3
15:25:19.654242,-1,3,-3,2,-2,-2,-3,-1
15:25:19.661238,-1,-2,1,-2,-2,-1,-3,1
15:25:19.683223,1,2,-1,0,2,0,-1,0
15:25:19.691219,-10,-2,1,0,-4,2,-3,-3
15:25:19.706210,-2,1,1,2,-1,-3,3,1
15:25:19.707211,-1,1,1,3,2,-2,-2,-3
15:25:19.714204,-2,-2,-2,2,-7,-2,-3,-3
15:25:19.721201,-1,-1,-2,-1,-1,0,2,3
15:25:19.736191,0,-1,-1,0,1,-1,-3,1
15:25:19.744186,-1,-1,0,0,0,2,0,2
15:25:19.766173,0,-3,-2,-4,-7,-2,-2,-2
15:25:19.767178,1,-3,-2,-3,-2,-5,1,0
15:25:19.774167,-2,-1,-1,1,-2,-3,-3,0
15:25:19.781162,0,0,0,2,-1,1,-1,-3
15:25:19.796155,6,-4,-4,1,1,-2,-1,-1
15:25:19.804155,-3,2,0,1,-1,-5,-4,-2
15:25:19.819137,-4,-1,-1,-4,-1,-2,-1,-2
15:25:19.819137,-1,0,0,-1,-2,2,-3,1
15:25:19.834131,-8,0,-4,-3,0,0,2,4
15:25:19.841123,3,-1,0,3,1,0,0,-1
15:25:19.856116,1,2,-1,-1,-6,-6,-1,0
15:25:19.864112,2,0,0,4,10,3,3,3
15:25:19.879102,2,0,2,-3,1,-6,-5,0
15:25:19.879102,1,-1,-2,-1,0,-1,-2,-3
15:25:19.894093,-1,0,-2,-1,-3,-4,-3,1
15:25:19.901087,0,-1,-2,-1,-8,-2,-2,1
15:25:19.916077,7,-1,-3,-3,-1,-2,0,3
15:25:19.924077,-4,-2,-5,-1,-2,0,-1,-4
15:25:19.946060,-1,-4,1,2,-1,0,1,0
15:25:19.947060,-7,-4,-1,0,-1,-1,-3,-5
15:25:19.954056,1,3,-1,-2,-3,-3,-1,-1
15:25:19.961049,-4,-4,-1,-1,5,1,-3,0
15:25:19.976047,0,0,-1,0,1,-4,2,-1
15:25:19.984038,2,1,0,-4,-4,-1,-1,-1
15:25:19.999028,0,-3,1,-4,-3,0,-1,-2
15:25:20.007023,0,0,0,-1,-11,-3,0,0
15:25:20.022011,-1,-3,2,1,-8,-3,1,0
15:25:20.022011,2,2,-1,1,-4,-3,-2,-2
15:25:20.037002,1,0,-1,-3,3,1,-1,-1
15:25:20.044001,-1,1,-3,1,-2,-2,-2,1
15:25:20.073982,-3,-1,2,-2,0,2,0,3
15:25:20.074981,-1,-2,0,2,1,-4,-3,-4
15:25:20.080975,3,-1,-5,-1,5,-2,-1,2
15:25:20.081976,-1,1,-2,-8,-2,0,2,-1
15:25:20.096968,5,-3,-3,2,4,1,0,0
15:25:20.103963,-3,-1,-1,0,-3,-1,-3,-2
15:25:20.119950,0,-1,-2,0,-3,-1,0,1
15:25:20.126950,1,-1,1,-1,-3,-3,-3,-2
15:25:20.141939,1,1,1,-1,-3,-2,0,0
15:25:20.141939,0,-1,-3,0,3,-4,-1,2
15:25:20.156930,-3,-2,0,0,5,3,1,1
15:25:20.163926,-1,-1,0,-1,3,1,1,-1
15:25:20.178917,1,-2,-1,1,1,-4,-1,-2
15:25:20.193908,-2,-3,-1,-3,-3,-1,-1,2
15:25:20.201900,-9,-2,-2,1,-3,-1,0,-3
15:25:20.201900,-2,-1,3,2,1,-2,-2,-1
15:25:20.216893,-2,-4,2,-5,-7,-3,0,-3
15:25:20.223889,-1,-2,-2,1,9,2,1,-3
15:25:20.238879,-1,-3,-1,-3,-15,-3,0,3
15:25:20.245879,1,-1,0,1,-8,-3,2,0
15:25:20.261862,-2,-1,-1,-2,1,-3,-2,-5
15:25:20.261862,-1,-1,0,-2,0,-1,-2,0
15:25:20.276856,1,1,-2,-3,0,-1,1,5
15:25:20.283851,-3,-1,-3,-3,-3,-1,0,1
15:25:20.306835,1,-1,-2,-1,-1,-1,0,-3
15:25:20.306835,-1,-1,-1,-5,-3,0,2,7
15:25:20.321828,-3,1,-1,1,-7,0,1,-1
15:25:20.321828,1,-1,-4,-4,1,3,3,2
15:25:20.336816,-1,-1,0,0,-6,-1,-1,-2
15:25:20.351807,-2,-3,-3,-3,-10,-3,0,-2
15:25:20.358805,1,-1,2,3,3,-1,-2,-4
15:25:20.365800,0,-4,-2,2,1,-1,-1,1
15:25:20.381788,-1,1,0,0,-4,-2,-1,-2
15:25:20.381788,-3,0,-1,-3,-2,-5,1,1
15:25:20.396780,-4,-1,1,2,0,1,0,1
15:25:20.403776,-2,-1,-1,2,-2,-2,-3,0
15:25:20.418765,1,0,-2,0,-1,0,-1,-2
15:25:20.425762,1,1,0,-4,-4,-4,-1,-2
15:25:20.441750,0,0,-1,0,1,4,1,2
15:25:20.441750,-4,0,-1,-5,-8,-5,-4,0
15:25:20.456743,-8,-3,-2,1,8,4,0,-4
15:25:20.463739,-3,-1,0,-6,-3,0,-2,-2
15:25:20.478730,-1,-1,-3,2,-1,-4,-1,-2
15:25:20.486723,0,-4,-1,1,2,-3,-1,-3
15:25:20.501714,-3,-3,1,-3,-3,0,1,1
15:25:20.501714,-1,0,-1,-2,-2,1,2,1
15:25:20.516704,-3,-3,1,0,-1,-3,-4,-3
15:25:20.523702,-1,-1,-4,-2,2,-2,-1,-2
15:25:20.538692,-3,0,-3,-1,0,-4,-2,-5
15:25:20.546692,-2,-4,-1,1,-3,1,0,-4
15:25:20.561677,-1,4,1,1,4,4,2,1
15:25:20.561677,-3,0,-1,0,1,0,-1,-2
15:25:20.576670,-5,0,-1,-3,2,4,0,1
15:25:20.583665,-2,2,0,1,2,3,0,0
15:25:20.598656,-3,0,-4,1,1,-3,-4,3
15:25:20.606651,-3,0,0,-2,-2,-1,0,-1
15:25:20.621639,3,2,0,-1,0,-1,-1,-4
15:25:20.621639,1,-1,0,1,2,0,1,-1
15:25:20.636630,2,2,-2,-2,-7,0,4,0
15:25:20.643628,0,1,-1,3,0,-1,-1,0
15:25:20.658619,-1,-3,0,-2,-1,-2,3,1
15:25:20.673609,-2,-4,1,2,-3,0,-1,-2
15:25:20.681603,2,-1,-2,-2,-1,-2,-2,-2
15:25:20.681603,-4,0,2,-3,-6,-1,-2,-2
15:25:20.696595,1,1,-2,-2,1,-1,-3,-3
15:25:20.703591,-6,-2,1,-1,-3,0,-3,-3
15:25:20.719579,2,0,-1,0,-4,-2,-2,-2
15:25:20.726577,-6,-1,1,-3,-1,0,-2,-5
15:25:20.741569,-4,-2,0,2,2,0,-2,-1
15:25:20.741569,-7,-1,0,-1,-1,-1,1,1
15:25:20.756558,-8,-5,-2,-3,-3,-6,-4,-5
15:25:20.763552,0,-1,-1,3,2,1,2,-1
15:25:20.778543,-4,0,1,-3,-8,2,3,0
15:25:20.786538,-2,1,1,-4,-1,-2,0,2
15:25:20.801533,1,-2,-4,-3,1,4,1,-1
15:25:20.802530,0,-1,0,0,-1,2,2,2
15:25:20.816518,-4,-4,0,-3,-1,-4,-3,-6
15:25:20.823516,1,-2,2,-2,-2,2,-3,2
15:25:20.838505,-3,-1,0,-4,-1,5,4,2
15:25:20.846502,1,3,0,1,-6,-4,-4,-4
15:25:20.861493,2,1,0,-1,0,3,4,0
15:25:20.861493,3,-3,-3,0,8,4,-1,1
15:25:20.876484,-1,-1,-1,-3,-5,-3,-3,-1
15:25:20.883480,-2,-1,-5,-4,-2,-1,0,-1
15:25:20.898470,-4,-3,-2,-3,-1,-1,-2,3
15:25:20.906466,-1,1,3,0,-2,2,3,-1
15:25:20.921456,0,-3,0,-5,-1,0,-3,-1
15:25:20.928452,1,-2,0,1,3,1,-1,1
15:25:20.943441,-3,-2,-1,2,-2,-1,-1,0
15:25:20.944442,-4,-3,0,-11,6,0,-2,-3
15:25:20.958433,2,-1,5,4,3,-1,1,3
15:25:20.966428,-2,0,-3,1,-4,-3,-2,0
15:25:20.981416,1,2,12,9,5,2,0,1
15:25:20.988415,1,-1,-4,-7,0,-2,1,-1
15:25:21.011401,0,3,4,-14,-4,5,1,0
15:25:21.012397,-2,-2,-12,5,4,-1,-3,-2
15:25:21.026391,-1,1,8,-2,-6,-1,-3,-5
15:25:21.027391,2,0,-9,11,0,-1,-1,1
15:25:21.041382,-3,0,8,3,-9,1,0,-2
15:25:21.048377,2,-2,5,61,38,18,0,1
15:25:21.063367,-5,-4,-43,-45,-128,-25,-2,-2
15:25:21.064365,-1,-2,-21,35,-20,-5,-3,-6
15:25:21.078363,-4,-6,32,85,23,5,-2,-7
15:25:21.086354,8,12,2,-27,-68,2,4,4
15:25:21.101345,-6,-11,-12,47,25,-9,-4,-3
15:25:21.109340,5,23,89,-87,127,28,5,4
15:25:21.124327,-17,-19,7,127,127,-20,-12,-13
15:25:21.124327,7,1,4,-128,32,54,9,2
15:25:21.139320,-10,-48,-128,-73,-128,-58,-3,3
15:25:21.146316,-17,20,127,127,127,28,-11,-25
15:25:21.161307,36,24,-82,-128,-128,-20,14,28
15:25:21.169299,-9,11,7,-128,127,40,-4,-12
15:25:21.184290,4,0,76,127,127,-22,9,8
15:25:21.184290,33,41,-8,102,127,4,13,27
15:25:21.199284,-28,-53,25,127,-128,-120,-30,-21
15:25:21.206279,13,-13,-128,-128,-128,-43,11,12
15:25:21.221270,-65,-41,17,127,127,28,-40,-68
15:25:21.229262,-13,-70,-104,-128,-128,-20,-5,4
15:25:21.244254,19,59,101,103,73,28,9,1
15:25:21.244254,58,88,-128,-128,-128,-95,29,52
15:25:21.259246,-103,-85,45,127,127,-24,-71,-91
15:25:21.266242,46,71,59,-2,-128,-18,18,26
15:25:21.289232,-46,-107,-95,-128,127,14,-28,-31
15:25:21.289232,36,107,70,-128,127,54,9,5
15:25:21.304219,2,12,92,127,15,26,-8,-3
15:25:21.304219,5,-11,-48,-128,-62,2,13,9
15:25:21.326205,28,45,-18,-84,-103,13,7,12
15:25:21.327205,-34,-63,-25,36,35,6,-19,-18
15:25:21.341196,49,106,90,40,-128,-15,10,21
15:25:21.349191,-97,-128,-128,-128,-128,-66,-37,-36
15:25:21.364178,33,48,-49,-128,127,51,12,16
15:25:21.364178,17,11,127,127,127,117,18,11
15:25:21.386168,34,49,16,-62,5,14,-5,5
15:25:21.387164,78,127,75,24,-52,15,16,16
15:25:21.409151,-57,-108,-50,-21,14,-16,-10,-19
15:25:21.409151,16,46,68,127,81,50,6,-1
15:25:21.423144,29,67,22,127,127,94,16,12
15:25:21.424142,10,37,52,-128,-47,-38,8,3
15:25:21.438135,-39,-69,-29,-93,-72,-28,-9,-16
15:25:21.446127,28,46,94,127,42,24,12,18
15:25:21.461117,11,22,29,108,-16,39,7,5
15:25:21.468116,-10,-16,16,116,21,0,-5,-9
15:25:21.484110,-12,-30,-76,-128,34,-45,-3,-4
15:25:21.484110,10,47,98,127,75,-1,-4,-2
15:25:21.499095,-16,-47,-22,-107,-101,-20,-5,-9
15:25:21.506090,-20,-25,-23,-53,-73,-17,-5,-4
15:25:21.521083,13,26,35,127,-128,3,1,7
15:25:21.536074,0,2,19,31,-128,-115,-11,-5
15:25:21.544067,5,21,60,127,8,50,4,1
15:25:21.544067,-3,-1,-30,-128,-128,8,-4,-7
15:25:21.559060,16,40,-16,-67,-69,8,3,0
15:25:21.566056,-10,-24,-32,-12,-15,-43,-3,-2
15:25:21.581045,-20,-38,44,127,127,127,7,-3
15:25:21.589042,35,68,17,-128,31,-59,2,10
15:25:21.611029,-5,-18,-31,59,-1,-20,-1,0
15:25:21.612028,-21,-27,9,56,127,0,-6,-10
15:25:21.619024,10,19,21,109,48,103,17,5
15:25:21.626017,9,16,6,-12,-26,9,-1,4
15:25:21.641008,-1,3,-20,-71,127,-16,-4,0
15:25:21.649005,2,19,22,6,127,20,0,-3
15:25:21.663995,17,25,40,12,119,-17,-2,6
15:25:21.664996,-10,-13,-20,-62,-128,-45,-6,-2
15:25:21.678986,-32,-71,-15,127,127,35,-5,-11
15:25:21.685979,6,4,49,-3,127,34,10,6
15:25:21.708968,-22,-38,-20,127,127,59,0,-11
15:25:21.709964,5,17,-24,-105,-128,-24,-6,-1
15:25:21.723958,0,11,-33,-128,-128,-18,-4,-4
15:25:21.724956,-19,-28,-27,-128,92,24,-4,-14
15:25:21.745943,7,15,9,-2,-19,25,4,2
15:25:21.746942,-26,-46,-55,30,66,80,-3,-6
15:25:21.761934,-8,-16,-30,-90,-128,-15,-3,-2
15:25:21.768930,5,23,39,113,12,-8,-3,-5
15:25:21.783921,-9,4,12,50,57,29,-4,-11
15:25:21.784918,4,3,-9,-86,127,-2,3,4
15:25:21.806906,-27,-45,-68,-31,-96,-11,-12,-12
15:25:21.806906,8,12,15,127,127,42,9,6
15:25:21.820898,6,5,-35,-66,127,-11,4,5
15:25:21.828894,1,-20,-30,-31,103,-11,7,6
15:25:21.843884,-5,0,-6,-111,127,-7,-3,-3
15:25:21.844881,7,1,11,47,73,6,5,4
15:25:21.866869,-42,-58,21,119,-46,52,-14,-18
15:25:21.866869,9,18,-23,-79,-128,-64,-1,2
15:25:21.881858,1,1,27,29,-22,-35,0,5
15:25:21.888856,-2,-5,31,97,127,17,1,0
15:25:21.903847,12,7,49,127,127,8,10,11
15:25:21.911842,-9,-16,2,-77,-128,-22,-1,-2
15:25:21.925833,12,27,5,81,127,25,4,4
15:25:21.926830,-3,8,13,58,127,60,6,0
15:25:21.941824,-28,-22,-13,-44,-106,-40,-17,-18
15:25:21.948819,6,6,-5,4,-19,-12,1,3
15:25:21.963810,16,20,32,126,127,26,10,13
15:25:21.971805,3,5,4,-47,-46,4,2,2
15:25:21.985793,-11,2,-2,-10,-7,-1,2,3
15:25:21.986793,-3,-3,-2,-4,-9,0,0,-3
15:25:22.001786,16,5,6,6,8,4,7,-1
15:25:22.008781,-7,-10,-16,-12,-22,-41,-26,-19
15:25:22.023772,0,3,8,5,14,17,-22,16
15:25:22.031767,62,8,-6,-7,-16,-18,-4,39
15:25:22.045759,-20,0,11,16,15,-1,12,-69
15:25:22.046756,75,15,11,13,15,8,-40,33
15:25:22.061749,-90,-37,-20,-16,-11,1,-98,-3
15:25:22.068744,-44,18,7,4,7,52,72,-63
15:25:22.083735,20,17,14,15,10,-6,-27,3
15:25:22.091730,28,22,18,17,25,-2,-128,-56
15:25:22.106718,-12,-28,-24,-18,-13,6,75,85
15:25:22.106718,48,25,8,1,-17,-25,127,-120
15:25:22.121708,26,-13,4,10,23,15,-37,101
15:25:22.128707,36,13,8,8,1,0,36,-29
15:25:22.143698,3,14,4,0,3,10,24,-10
15:25:22.151690,1,-7,-5,-4,-9,-6,-26,-12
15:25:22.166681,12,9,1,-1,-1,-16,-16,12
15:25:22.166681,6,4,-15,-90,-33,-24,-3,4
15:25:22.181674,-28,-16,5,17,4,-2,-15,-27
15:25:22.188670,-17,-13,4,-15,-19,-1,-11,-6
15:25:22.203660,20,7,-11,60,6,5,0,2
15:25:22.211653,5,-15,-29,-128,-33,-4,2,0
15:25:22.226647,11,15,40,91,-18,-3,6,7
15:25:22.226647,72,27,-12,86,127,26,31,33
15:25:22.241638,-81,18,-21,99,100,-42,-10,-50
15:25:22.248633,63,14,35,100,-128,-89,-11,14
15:25:22.263621,73,-39,-34,-84,127,32,26,22
15:25:22.271619,-27,40,45,27,44,-69,-12,-4
15:25:22.286609,0,-13,-42,-54,51,-26,-30,-5
15:25:22.287609,11,-14,38,22,41,-26,-60,-33
15:25:22.301600,-39,-4,-4,23,33,-7,-7,19
15:25:22.308594,-23,4,6,-10,-124,-22,-23,-35
15:25:22.323586,5,8,-4,21,6,-42,-53,19
15:25:22.331582,-4,11,-41,-7,-128,6,30,32
15:25:22.346572,-63,-20,-36,-53,52,-24,-59,-1
15:25:22.346572,-59,-19,16,61,16,-67,-109,-50
15:25:22.361563,-25,-11,-9,2,-128,34,91,-10
15:25:22.368558,53,13,17,-3,38,7,2,29
15:25:22.383547,-10,1,-16,52,-66,-21,-2,-10
15:25:22.398538,8,19,30,127,-78,-13,24,61
15:25:22.406532,23,-17,-60,-66,-104,-23,-8,20
15:25:22.406532,20,5,-24,-16,-109,-22,-8,33
15:25:22.421526,3,-2,7,-95,-30,6,-6,-24
15:25:22.428532,8,12,7,-80,-128,5,5,4
15:25:22.443509,-8,-8,7,24,-13,29,81,61
15:25:22.452506,-86,-3,-24,4,21,15,4,-19
15:25:22.481486,-50,-4,45,81,124,2,-25,-35
15:25:22.481486,-12,9,23,-128,-128,-5,1,8
15:25:22.482488,-41,-9,60,8,-108,-29,-30,-69
15:25:22.489483,12,-2,-82,-111,-73,14,16,18
15:25:22.503474,-9,-20,37,-38,-9,9,-11,-38
15:25:22.511470,-21,-12,2,127,127,-17,-10,11
15:25:22.526461,-11,4,-17,3,-17,5,-6,-12
15:25:22.527458,-18,-10,19,127,89,15,20,-17
15:25:22.541451,15,-21,-39,86,122,5,-7,-19
15:25:22.548447,-11,-5,-57,-118,-128,-18,-3,-8
15:25:22.564435,26,7,17,17,91,3,-13,-19
15:25:22.579428,16,1,-7,-118,-47,7,4,-1
15:25:22.586423,-28,-30,-7,127,-6,-5,-12,0
15:25:22.586423,-25,1,17,70,127,3,-15,-25
15:25:22.601414,27,1,-45,-61,-59,10,8,3
15:25:22.608410,14,4,18,66,88,11,13,15
15:25:22.624397,-9,-3,8,4,14,6,29,20
15:25:22.631396,13,0,-4,-19,-96,-10,3,4
15:25:22.646387,-1,0,10,78,79,12,3,0
15:25:22.647383,-7,-5,-11,-45,6,-29,-9,-12
15:25:22.661377,-24,5,5,127,31,6,-2,-16
15:25:22.668375,2,-8,-12,5,-8,-3,-5,7
15:25:22.684363,4,3,-29,-54,-101,3,5,4
15:25:22.691358,-10,-10,-8,-83,-58,4,-10,-4
15:25:22.706349,2,-7,3,20,9,-5,1,-5
15:25:22.707346,21,6,3,-14,21,2,4,6
15:25:22.721340,31,-1,-23,-21,-5,8,14,29
15:25:22.729335,-14,-11,-1,38,54,-12,-18,-10
15:25:22.743325,-4,4,18,-7,-54,-1,8,1
15:25:22.751321,-4,-1,-6,43,24,3,4,-5
15:25:22.766312,0,-1,0,-89,-54,7,14,8
15:25:22.767311,14,6,20,41,40,9,9,20
15:25:22.781302,-7,-3,-10,-2,-4,-3,2,-3
15:25:22.789299,1,4,1,5,3,5,-4,0
15:25:22.804287,1,5,1,10,37,9,0,0
15:25:22.818298,0,-2,-1,-112,-81,-12,-4,-1
15:25:22.826274,1,-2,-3,26,-34,0,0,-6
15:25:22.833295,12,-1,-1,-6,0,1,0,11
15:25:22.849258,-9,1,1,-85,-40,-2,-1,-5
15:25:22.849258,-2,2,2,15,4,-17,-17,-8
15:25:22.864251,0,-2,-4,0,-3,-2,6,2
15:25:22.879239,-1,-2,2,-2,-2,1,0,-1
15:25:22.886237,-3,0,1,24,4,-1,-1,-6
15:25:22.894229,-3,-2,-4,2,-4,-7,0,-2
15:25:22.908225,6,1,0,7,23,1,7,12
15:25:22.909223,-10,-3,-3,-2,13,-6,-6,-6
15:25:22.924213,0,0,-2,-1,6,1,-1,-5
15:25:22.931209,7,-3,1,-1,-5,1,3,0
15:25:22.946200,0,-7,-6,-2,-8,0,2,2
15:25:22.954193,-5,2,-1,0,2,4,-3,-7
15:25:22.969186,-3,0,-3,-1,-1,1,-2,-3
15:25:22.969186,-7,-4,0,2,3,0,0,-5
15:25:22.984177,-1,0,-3,0,-1,-2,-1,-2
15:25:22.991172,3,1,0,-1,7,3,1,6
15:25:23.006162,-4,-3,-4,0,2,-3,-1,-8
15:25:23.014156,0,-1,-3,-1,0,0,0,3
15:25:23.029146,1,0,-2,0,1,0,0,-1
15:25:23.029146,2,2,2,21,16,1,2,-3
15:25:23.044140,1,-3,-4,3,6,-2,-1,-4
15:25:23.051137,-4,-1,-2,3,0,1,1,2
15:25:23.066126,-13,-2,-1,-5,-1,1,0,-6
15:25:23.074121,-1,0,0,-1,-5,-8,-5,-8
15:25:23.089111,-2,-3,-3,1,-5,-3,0,1
15:25:23.089111,0,1,0,1,4,5,7,5
15:25:23.104103,1,-2,-3,0,-2,-6,-3,-2
15:25:23.119093,-2,-2,0,-6,-7,-1,-1,-6
15:25:23.126088,1,0,1,-1,-6,2,5,3
15:25:23.134084,1,1,-2,3,2,1,-5,0
15:25:23.149071,5,0,-2,-2,1,-1,-5,-1
15:25:23.149071,4,0,-1,-2,-6,-5,-2,-1
15:25:23.164066,4,7,6,7,11,7,9,6
15:25:23.171059,-5,-1,-2,-3,-6,-5,-3,-3
15:25:23.186050,0,0,3,-1,-1,2,6,3
15:25:23.194047,1,-1,0,4,-14,0,3,-3
15:25:23.209037,-3,-3,-5,-4,2,-2,-5,-6
15:25:23.209037,-1,-3,0,0,-1,0,-7,-4
15:25:23.231023,2,-1,0,-2,-3,-3,-2,0
15:25:23.232023,-3,-3,-1,-2,-4,-1,-8,-2
15:25:23.246013,11,1,-1,-1,-2,-5,2,2
15:25:23.254007,-5,-3,-3,-2,-3,-4,-4,-4
15:25:23.269001,-5,2,4,4,2,5,0,-2
15:25:23.269997,1,-2,1,-3,-2,-4,-12,-3
15:25:23.283991,-3,-1,-1,2,-1,4,1,-4
15:25:23.290989,2,-2,-2,-1,-2,-3,-2,-4
15:25:23.306974,-1,-2,1,0,-3,-6,-1,0
15:25:23.313972,-4,1,-3,0,-5,-2,-1,-2
15:25:23.328963,-5,-2,0,-1,4,0,2,-5
15:25:23.329968,2,1,-2,1,-6,-3,-2,4
15:25:23.343953,0,2,2,2,0,1,3,0
15:25:23.350948,-1,1,-5,1,-4,-6,-5,-3
15:25:23.365936,-5,-3,-5,-1,0,-3,-1,-2
15:25:23.373935,9,1,0,-3,-3,2,3,10
15:25:23.388926,-3,-1,-2,-2,-7,-4,-3,-4
15:25:23.389925,3,-1,0,0,-2,0,-1,3
15:25:23.403917,-6,-5,0,0,-1,-1,-3,-1
15:25:23.410911,-2,0,0,-3,0,5,9,-3
15:25:23.425903,0,-2,2,0,-2,-3,-1,1
15:25:23.433898,0,-1,0,-3,-2,4,2,4
15:25:23.448886,-1,-3,-1,-1,1,0,0,1
15:25:23.449887,1,-1,1,1,2,5,-4,-1
15:25:23.463878,-5,-3,-3,-1,1,-4,-1,-4
15:25:23.470878,-3,-4,0,-2,-1,-2,-2,1
15:25:23.485865,-8,-3,-4,-2,1,1,0,0
15:25:23.493861,2,2,0,0,-11,-1,6,5
15:25:23.508852,-9,-3,-5,-2,3,-3,0,-3
15:25:23.509851,2,1,-1,2,5,-3,-12,-5
15:25:23.523842,0,-1,-1,-2,-1,0,4,2
15:25:23.531837,-4,1,0,-5,-4,-3,-3,-4
15:25:23.553824,-3,1,0,-1,-5,-1,-3,-5
15:25:23.554823,1,1,-1,-1,2,0,-3,-1
15:25:23.568814,-4,-5,-2,-3,-3,-3,1,-4
15:25:23.569814,-2,2,0,0,3,6,6,-1
15:25:23.583802,0,-2,-2,2,0,0,0,-1
15:25:23.591800,7,-2,0,1,1,5,4,6
15:25:23.613786,-8,-5,0,-2,-3,-1,1,-6
15:25:23.614786,-3,-2,-3,-2,2,-1,5,2
15:25:23.628777,-1,-3,-3,1,-3,0,-5,-3
15:25:23.629774,-1,2,-3,-4,-3,1,10,1
15:25:23.650762,-2,-3,1,1,-4,1,1,1
15:25:23.651760,2,1,1,0,2,0,4,7
15:25:23.666753,-2,-1,-1,-3,0,6,6,3
15:25:23.673749,0,-3,0,4,2,-1,3,2
15:25:23.688740,-5,-3,-3,-2,-1,1,-1,0
15:25:23.689739,-3,-2,-1,-1,0,-4,-4,-3
15:25:23.710725,-1,-2,-3,-1,0,-2,-2,2
15:25:23.711726,2,-1,-1,1,3,1,-1,-1
15:25:23.726719,-1,-4,2,1,3,-1,3,3
15:25:23.733711,-1,-2,-1,-2,-1,0,-1,-5
15:25:23.748702,2,3,0,-3,2,-2,-6,-1
15:25:23.749701,-1,0,-1,-1,-9,-1,5,1
15:25:23.771685,0,-1,-2,-3,0,0,1,-1
15:25:23.771685,0,0,-4,0,-1,-6,-5,-8
15:25:23.786679,0,0,0,1,1,-3,-5,0
15:25:23.801670,3,1,0,-1,-3,-3,0,3
15:25:23.808665,6,-1,-3,-4,6,4,0,2
15:25:23.816660,-1,-3,-1,-3,-11,-6,-3,-1
15:25:23.830659,-2,1,4,3,-3,2,5,0
15:25:23.831652,-2,-3,-1,6,5,-6,-12,-10
15:25:23.846642,-1,-2,1,-7,-7,0,-1,-1
15:25:23.853637,-3,-2,3,11,18,2,-7,2
15:25:23.868627,-2,-2,-1,3,-35,-6,0,-2
15:25:23.876623,-3,1,0,24,2,3,0,-1
15:25:23.891611,-1,-1,-2,-10,-15,-5,-2,1
15:25:23.891611,5,-2,-2,-3,6,1,-1,6
15:25:23.906602,-5,-2,-2,1,1,-5,-7,-6
15:25:23.913599,7,-3,1,0,6,3,7,9
15:25:23.928589,0,0,0,4,10,5,-4,0
15:25:23.936586,2,0,1,-1,-3,-4,-3,1
15:25:23.951577,-3,-1,-3,-5,-7,1,3,-1
15:25:23.951577,2,2,4,7,7,1,1,3
15:25:23.966567,3,-3,-4,-2,1,-8,-10,-4
15:25:23.981558,3,0,0,0,-1,1,1,1
15:25:23.988552,0,-1,-3,-2,-3,-3,1,1
15:25:23.996549,-5,-4,0,-11,3,4,3,0
15:25:24.011543,-2,-1,-1,-19,-4,-2,2,-2
15:25:24.011543,-3,-2,-2,6,11,-4,-6,-3
15:25:24.026530,-2,0,2,3,1,1,3,3
15:25:24.033526,-2,-4,-5,-4,-2,1,4,0
15:25:24.048514,3,-1,0,15,7,-1,-7,1
15:25:24.063505,4,-2,-3,-1,-2,-3,-2,-3
15:25:24.078497,8,3,-1,-5,-2,4,4,2
15:25:24.079496,-2,0,1,-16,-3,-2,-3,-3
15:25:24.086493,-3,1,-1,4,2,-4,-2,-5
15:25:24.093489,-2,-1,-1,0,2,0,0,0
15:25:24.108479,9,2,-1,1,4,3,2,3
15:25:24.116474,-1,-1,-2,-2,3,2,-2,-1
15:25:24.131466,-5,-2,0,8,-7,-4,-4,-6
15:25:24.132461,-3,-4,0,-4,-3,-4,-4,-5
15:25:24.146456,-2,1,2,4,3,4,14,-2
15:25:24.153453,1,-1,1,-3,-7,2,-7,-4
15:25:24.168443,0,-1,1,-7,-3,-2,2,-2
15:25:24.176437,0,0,-1,4,3,-3,-1,1
15:25:24.191428,-4,-1,-1,0,-2,-4,-7,-2
15:25:24.192428,-5,0,-5,-3,-3,-1,-2,-1
15:25:24.206419,5,1,3,1,0,-5,-6,-2
15:25:24.213414,6,0,-1,-1,2,5,5,7
15:25:24.228405,-1,-2,1,-1,1,-5,-9,-6
15:25:24.236400,6,-1,3,2,0,-6,-8,4
15:25:24.251391,-1,-4,-1,-3,-3,-2,1,1
15:25:24.252390,5,1,6,-1,-2,-3,2,4
15:25:24.266382,-1,-2,2,3,7,-1,-3,0
15:25:24.273377,1,1,-3,-22,-15,-11,-16,-9
15:25:24.288367,-2,-2,-2,0,1,-2,-2,1
15:25:24.296363,3,1,1,-2,-1,0,-5,-4
15:25:24.311354,-5,-1,0,0,0,2,4,-7
15:25:24.312353,-4,1,-3,-4,-2,-1,0,0
15:25:24.326345,-1,-4,-4,-4,-1,1,-4,-6
15:25:24.334339,-1,-2,-1,-6,-7,-8,-5,-2
15:25:24.349334,4,0,-1,9,2,-2,-9,3
15:25:24.356326,-3,-2,-4,-10,-5,-6,-5,-5
15:25:24.371316,-1,1,-2,15,-1,-2,2,4
15:25:24.372316,-3,-4,-1,5,-1,-1,-2,-1
15:25:24.386307,-1,-1,0,-25,-10,-1,0,-3
15:25:24.401298,-5,1,1,6,13,6,0,0
15:25:24.409292,4,0,2,-3,14,-4,3,3
15:25:24.416288,-5,1,0,-3,-54,-9,-7,-6
15:25:24.438275,-4,-2,-2,-4,0,1,8,-2
15:25:24.439271,-1,-6,-2,32,47,7,10,-5
15:25:24.446270,0,0,0,24,25,-3,0,-1
15:25:24.461259,10,0,-2,-2,0,-4,-3,6
15:25:24.469253,-6,-2,1,32,15,-4,-2,-3
15:25:24.476248,-9,-5,9,16,-8,-4,5,5
15:25:24.491241,-1,-1,-1,-2,3,-2,-1,6
15:25:24.499234,2,1,-2,-8,-5,3,0,1
15:25:24.506232,3,0,0,-10,4,-8,-5,-2
15:25:24.514225,2,1,-2,0,3,-3,-1,-5
15:25:24.529218,-4,-2,-1,6,7,5,14,1
15:25:24.536214,-1,0,-3,6,25,-3,-1,-2
15:25:24.551204,11,2,2,4,37,3,1,4
15:25:24.566196,-2,-1,-1,2,-11,0,3,-2
15:25:24.567196,-4,0,1,-28,10,-1,-7,-4
15:25:24.574188,0,-1,-1,6,2,3,5,-2
15:25:24.589179,-5,-1,-2,-6,-2,0,-3,-3
15:25:24.596176,5,1,1,27,7,-2,2,5
15:25:24.611164,7,1,1,2,-3,0,2,2
15:25:24.619164,1,0,-3,3,-9,2,4,0
15:25:24.626156,3,1,-1,-1,8,-1,10,-3
15:25:24.634153,-5,-2,-1,-6,-36,-7,-2,-6
15:25:24.649144,-3,-2,-2,7,1,0,-1,-3
15:25:24.664132,-2,-1,-2,3,8,6,0,3
15:25:24.671127,-1,-1,3,3,-17,4,-1,7
15:25:24.679125,7,-2,1,14,13,3,0,3
15:25:24.686121,-1,0,-2,3,-2,0,-9,3
15:25:24.694115,0,-3,0,2,9,0,2,-3
15:25:24.709107,-1,-2,-4,-32,-4,4,1,-1
15:25:24.716102,1,-4,-2,0,-93,-2,-2,-11
15:25:24.731091,2,3,-1,-4,-41,-11,-8,7
15:25:24.739088,-2,0,2,3,0,5,3,-3
15:25:24.761075,1,2,0,21,5,-3,1,6
15:25:24.762071,0,3,1,9,-10,-1,3,3
15:25:24.769070,3,-1,1,-3,14,3,2,0
15:25:24.776065,4,0,1,-4,10,6,2,4
15:25:24.791056,11,0,-3,-13,-21,6,4,14
15:25:24.799051,-6,-2,0,6,14,1,-1,0
15:25:24.814039,-1,1,1,16,64,6,-1,3
15:25:24.814039,1,-2,-1,-1,-19,-5,2,1
15:25:24.829032,1,-1,-1,10,12,-4,-4,-2
15:25:24.836028,-4,-1,0,2,5,4,-1,-1
15:25:24.851019,6,0,2,3,3,9,0,-1
15:25:24.859014,5,1,0,2,-5,3,11,6
15:25:24.874002,1,1,0,-3,-48,1,0,-3
15:25:24.875003,-3,-2,-5,-46,44,3,-3,-3
15:25:24.888995,-2,0,0,27,2,-4,-3,-3
15:25:24.896988,-1,-3,-3,-95,-21,1,0,-1
15:25:24.910982,-1,-4,-4,12,11,-3,-4,-2
15:25:24.918974,-2,0,0,24,29,2,-3,1
15:25:24.933966,-1,2,-4,-119,-67,-2,2,1
15:25:24.933966,-5,0,3,23,-40,-4,-1,-2
15:25:24.950954,-3,1,1,-16,-10,0,0,-1
15:25:24.955953,-2,-3,1,18,0,0,-3,-3
15:25:24.970946,-1,3,-4,-15,-91,-4,0,-3
15:25:24.978938,-15,-8,-7,2,20,-2,-3,-7
15:25:24.992930,-2,1,-2,5,-9,-4,1,1
15:25:24.993929,2,-1,-2,-4,8,-2,0,-1
15:25:25.008919,-2,1,-2,-25,-17,0,-1,-4
15:25:25.015918,0,-1,0,23,-22,-2,-3,0
15:25:25.031907,-11,-3,-1,-87,-14,-2,-4,-4
15:25:25.038903,0,2,3,4,-4,-2,-4,-2
15:25:25.053893,-1,0,0,3,7,5,0,-7
15:25:25.054891,-7,-3,-3,17,-23,-3,-3,-4
15:25:25.068884,-1,0,0,7,-35,-11,-3,-3
15:25:25.075885,-1,-5,1,3,12,7,1,-2
15:25:25.090894,0,-1,-4,-5,-23,-3,0,1
15:25:25.098865,-2,-2,-1,-24,-58,-4,1,0
15:25:25.113856,-2,1,2,22,9,0,-4,-4
15:25:25.114854,-7,-1,0,5,-7,-5,-3,-2
15:25:25.128844,5,2,0,10,23,2,1,-1
15:25:25.136841,-1,-2,0,-32,-2,4,0,2
15:25:25.151832,-2,-4,-1,1,6,1,0,1
15:25:25.158828,2,-1,1,17,16,-4,-4,-2
15:25:25.173819,-3,-3,-8,-5,17,3,-1,-7
15:25:25.174818,3,0,0,1,-30,-2,-9,1
15:25:25.188809,-1,-1,0,-2,4,0,2,0
15:25:25.203797,-3,-2,-2,3,-4,-4,-2,-1
15:25:25.211795,-1,0,-2,-2,1,-3,-14,3
15:25:25.218791,3,2,0,-21,5,4,4,10
15:25:25.233781,-2,-5,0,5,-13,-8,-3,-4
15:25:25.234781,-1,1,4,6,-16,0,1,4
15:25:25.248772,1,-1,0,-2,2,0,1,-1
15:25:25.256768,3,-1,-3,-7,-3,8,0,1
15:25:25.271755,1,-4,1,6,8,-1,-1,0
15:25:25.278753,2,2,-2,-44,-5,1,2,0
15:25:25.293745,-2,-1,-5,7,-2,-3,-1,-2
15:25:25.294744,-6,-1,-3,-38,7,-1,-6,-1
15:25:25.308733,4,-1,0,9,40,-3,-10,-1
15:25:25.316729,9,2,1,4,21,6,-1,4
15:25:25.331718,0,2,-1,-12,-14,-1,-6,-3
15:25:25.338716,1,2,-1,2,-1,1,1,7
15:25:25.353707,-2,-4,-2,11,6,1,1,-3
15:25:25.354704,-1,-3,1,3,-20,-5,-2,-1
15:25:25.368698,-15,-4,-3,4,-59,-4,-9,-11
15:25:25.376693,-3,-5,-2,-6,-14,-2,-3,-1
15:25:25.391683,1,2,-1,-6,28,9,3,5
15:25:25.398682,2,-4,2,-34,-40,-12,-3,-3
15:25:25.413670,-7,0,0,13,19,0,-2,-2
15:25:25.414669,-1,3,-1,-7,0,-3,0,0
15:25:25.428659,-2,-1,-4,-1,6,1,-1,-1
15:25:25.436654,4,3,0,-30,-42,4,3,1
15:25:25.451646,-1,-3,0,11,-41,-2,-4,-2
15:25:25.458642,4,0,0,-5,45,-8,-22,1
15:25:25.473633,-3,-3,-1,-30,22,2,1,0
15:25:25.474630,7,3,-1,-7,-20,-3,5,16
15:25:25.496618,-1,-1,0,1,-4,1,4,2
15:25:25.496618,8,0,0,2,4,6,-1,0
15:25:25.511609,-3,0,-5,-7,-2,1,3,-1
15:25:25.518603,-1,3,2,-35,-14,-2,-5,-6
15:25:25.533595,-4,-2,-7,-8,55,-1,-5,-4
15:25:25.534595,2,3,1,19,82,10,15,5
15:25:25.548589,1,-4,-5,-4,25,-8,-2,-4
15:25:25.556582,-2,-2,0,1,5,-3,-1,-3
15:25:25.571572,-3,0,1,0,4,2,-1,-4
15:25:25.578564,-3,0,0,-7,-23,-3,-3,-3
15:25:25.593558,7,1,3,6,9,2,2,3
15:25:25.594558,-4,-2,-2,-3,4,-3,-5,-4
15:25:25.608549,3,2,0,-4,-10,-3,-3,-4
15:25:25.616544,-1,1,2,9,-1,2,3,0
15:25:25.631535,-2,3,0,-1,-40,0,0,0
15:25:25.638530,-1,-2,-3,-6,-48,-3,-1,-1
15:25:25.653521,-3,-1,-6,-2,6,-8,-10,-4
15:25:25.654521,-1,-1,0,5,0,-2,-2,-4
15:25:25.683501,0,2,4,10,9,8,8,-1
15:25:25.684501,-3,-1,1,1,13,1,-2,-3
15:25:25.691497,-3,-2,1,-3,-1,-3,-1,2
15:25:25.698493,3,0,-3,-45,-12,1,5,1
15:25:25.713484,0,-1,1,14,10,-1,-1,4
15:25:25.721479,-1,-2,-3,-7,-2,-3,-4,1
15:25:25.736467,0,0,1,-1,-12,2,-3,1
15:25:25.737469,-1,1,3,1,4,3,2,8
15:25:25.758456,-1,1,-2,7,-54,-1,2,-2
15:25:25.759456,-3,-5,-2,8,-17,-5,-6,-8
15:25:25.773446,-3,-1,1,-18,11,-3,-3,-1
15:25:25.781442,-4,-3,-2,9,4,-3,-6,-3
15:25:25.796433,-6,1,-1,-1,-4,-5,3,0
15:25:25.797432,5,-1,-2,-14,-9,-8,-7,-1
15:25:25.811423,-2,-4,-4,4,-3,-3,-3,-1
15:25:25.818419,2,-3,-1,-3,0,-3,-2,3
15:25:25.833414,0,2,-2,-2,-1,-2,-6,0
15:25:25.841405,2,1,2,1,3,2,1,3
15:25:25.856396,-1,-2,3,-1,4,2,-1,-2
15:25:25.857395,-3,-6,-3,-5,1,1,-1,-1
15:25:25.871386,-1,0,0,1,5,4,2,5
15:25:25.878381,-4,0,-2,3,2,0,-1,-3
15:25:25.894369,6,2,-1,18,1,-4,-12,-9
15:25:25.901367,0,-2,-2,-7,-6,-1,1,0
15:25:25.916359,0,1,-1,4,4,2,3,4
15:25:25.917357,5,0,1,12,12,3,8,-1
15:25:25.931349,-1,0,-1,-11,-34,-5,-2,-3
15:25:25.946339,2,4,2,4,10,7,4,5
15:25:25.954335,1,-3,2,3,4,0,-1,2
15:25:25.961330,-1,-1,2,-2,1,3,-1,-2
15:25:25.976321,1,0,3,-3,-5,-1,0,-2
15:25:25.977320,-4,-1,-3,-29,-7,0,2,2
15:25:25.991311,-9,-3,2,9,6,1,-1,-8
15:25:26.006303,-3,1,-1,0,-4,1,-5,-5
15:25:26.014297,-2,-2,-3,0,0,0,1,3
15:25:26.021293,1,0,0,-10,5,-4,1,-3
15:25:26.036284,-2,-2,2,2,14,8,-2,0
15:25:26.037283,-4,-4,-3,-5,-3,-1,0,-4
15:25:26.051274,1,3,3,5,12,2,4,0
15:25:26.059269,-2,1,-2,-33,-16,-8,-4,-3
15:25:26.074260,-3,-3,-6,-30,-6,0,-1,-6
15:25:26.081256,-2,-5,-1,12,7,-1,1,0
15:25:26.096246,4,-1,-1,-6,-1,-2,-5,-3
15:25:26.104242,-3,-1,2,1,-5,-1,-3,-3
15:25:26.111237,-1,3,3,0,-7,-4,-1,-3
15:25:26.119229,0,-1,-3,-13,0,-1,10,0
15:25:26.134221,-2,-1,0,8,13,3,-2,0
15:25:26.141218,-1,-2,0,-29,-13,-5,-1,0
15:25:26.156209,0,-2,-4,-16,-6,1,-6,0
15:25:26.157209,4,1,-2,12,-92,-1,6,2
15:25:26.171200,-7,-1,0,0,28,4,0,4
15:25:26.179196,-4,-2,-4,-3,8,0,-2,-4
15:25:26.194186,3,-1,-3,-5,1,-6,-7,4
15:25:26.201181,-3,-1,-2,-5,-6,-1,0,-4
15:25:26.216173,0,-1,-1,6,3,-3,-3,-1
15:25:26.217172,1,2,1,-2,-1,-5,-9,-8
15:25:26.231161,2,-3,1,-1,0,7,-1,2
15:25:26.239155,2,2,-1,9,0,-1,2,-1
15:25:26.254149,4,-1,-2,-22,-5,5,-3,2
15:25:26.261143,-4,-2,0,2,-63,-5,-7,-10
15:25:26.276135,-1,-1,-1,-3,-23,-3,2,2
15:25:26.277134,-1,1,0,-4,3,1,-2,-2
15:25:26.291125,1,-2,-3,-2,-2,-3,-3,-4
15:25:26.299118,-4,-4,-2,0,-5,-1,0,-2
15:25:26.314114,0,-1,0,-9,6,3,0,2
15:25:26.329103,2,0,1,3,4,-4,0,1
15:25:26.336098,3,1,-1,3,2,-2,-4,0
15:25:26.337094,2,4,-1,-8,-7,-6,0,5
15:25:26.351087,-4,-4,-1,-13,-6,2,8,-2
15:25:26.359083,2,1,1,6,-8,-3,-1,-3
15:25:26.374074,-1,-3,-3,-2,-2,1,4,4
15:25:26.381070,0,2,-1,0,-7,-1,-3,2
15:25:26.396061,-1,-1,1,11,6,-2,-3,-3
15:25:26.397058,0,1,-1,3,19,-2,0,-2
15:25:26.411048,-2,-1,0,11,16,2,-3,-3
15:25:26.419047,-2,1,-2,-4,-3,0,3,3
15:25:26.434038,0,0,2,16,20,1,0,0
15:25:26.441029,-2,-3,-3,2,30,2,-7,-5
15:25:26.456024,-2,0,-1,2,3,-2,0,0
15:25:26.457023,-5,-2,1,1,3,0,-1,-5
15:25:26.471015,-5,-4,-4,6,-4,2,0,-4
15:25:26.479010,0,-1,2,1,1,5,2,-4
15:25:26.493997,-5,-1,-4,-6,1,1,2,-3
15:25:26.500996,0,-3,-1,2,0,-4,-2,0
15:25:26.515985,-5,-1,-1,-3,6,-5,-4,-8
15:25:26.516986,6,-2,1,2,3,4,3,4
15:25:26.538972,1,1,-2,-20,-11,-5,-3,-4
15:25:26.539971,-4,-1,1,1,-9,-1,-3,-2
15:25:26.553963,-1,0,-1,1,-4,-1,-1,-3
15:25:26.560959,-1,-3,2,1,1,1,-5,-4
15:25:26.575949,-3,-3,-2,-2,3,0,1,-2
15:25:26.576949,3,-3,-2,-1,-5,-7,3,2
15:25:26.590939,0,0,-4,-1,-1,-1,0,2
15:25:26.606927,-5,-4,-3,-5,-1,1,2,-2
15:25:26.613925,-3,0,2,2,1,-1,-1,-2
15:25:26.620923,0,-1,-1,4,4,6,7,3
15:25:26.636910,-1,1,-2,1,-4,0,2,-4
15:25:26.643907,-2,-1,-3,0,-3,-3,0,0
15:25:26.658898,3,2,1,0,0,1,-6,0
15:25:26.659901,-3,0,1,-2,2,1,-2,0
15:25:26.673888,-3,0,1,1,0,-1,-10,-8
15:25:26.681884,3,2,0,9,7,-5,-2,-3
15:25:26.703870,3,-1,-3,4,7,-2,-4,0
15:25:26.704866,0,0,-3,-5,-7,-2,-8,-6
15:25:26.718861,-1,-3,-3,2,0,1,2,0
15:25:26.719860,-3,0,0,-5,-4,3,3,-3
15:25:26.733851,-3,-4,-3,0,1,1,0,0
15:25:26.741846,-1,-5,-3,-5,-5,-3,-3,-5
15:25:26.756836,-4,-1,1,1,-8,-2,-2,-1
15:25:26.763833,-4,-1,-3,0,0,0,-2,-3
15:25:26.778824,-3,2,1,2,11,3,-9,-4
15:25:26.779820,5,2,0,8,0,-1,3,1
15:25:26.793814,-7,-1,-2,-2,7,1,-3,-6
15:25:26.801811,1,2,0,-1,-1,1,-3,-1
15:25:26.816797,-5,-4,1,-51,-18,1,12,-1
15:25:26.823796,0,0,-3,14,5,-2,2,-1
15:25:26.838786,0,0,1,4,0,-4,3,2
15:25:26.839783,-1,-2,0,1,1,-3,-2,1
15:25:26.853777,1,-4,-2,0,-2,-4,-4,-1
15:25:26.861771,-3,1,0,1,6,5,1,-1
15:25:26.876763,-1,-3,1,-7,-4,0,0,1
15:25:26.883758,1,-2,0,2,11,-2,1,2
15:25:26.898749,-1,1,1,-2,-7,-3,-2,-1
15:25:26.899748,-7,-2,-2,-2,-3,-3,-6,-5
15:25:26.920746,-3,-1,0,0,-3,1,2,-2
15:25:26.921732,-1,0,-4,2,2,-1,-1,-2
15:25:26.936725,1,0,-2,-1,-2,-6,8,-3
15:25:26.943720,-3,0,0,1,7,7,1,0
15:25:26.958711,-1,-3,-3,-6,-2,-2,-1,-2
15:25:26.959714,-3,-3,-3,0,-2,2,1,-4
15:25:26.973702,-5,1,-1,0,-6,-3,-3,-5
15:25:26.981697,-5,-3,-3,-6,-2,2,0,-4
15:25:26.996688,-3,-2,1,-11,-8,0,-1,0
15:25:27.003683,4,-2,1,15,21,8,2,4
15:25:27.026667,2,-1,-3,-1,-1,2,3,5
15:25:27.026667,0,1,0,0,-4,-2,3,0
15:25:27.033665,1,2,-1,-3,-4,0,-1,-2
15:25:27.041663,-1,-2,0,-3,2,-1,4,0
15:25:27.055651,7,1,1,1,-2,-1,-3,0
15:25:27.063645,0,-1,-1,-1,-3,5,5,1
15:25:27.078638,-1,-2,-3,-2,5,-1,1,0
15:25:27.079637,-1,-1,-1,0,3,-3,-4,-3
15:25:27.101623,-4,-3,-5,-4,5,2,-3,-1
15:25:27.101623,2,-1,1,1,-4,-4,-1,-2
15:25:27.116611,-1,-1,-5,-6,2,0,-5,-2
15:25:27.123607,4,1,2,3,-2,-2,-2,1
15:25:27.138599,0,-1,-3,-1,-3,-2,-2,-3
15:25:27.139599,-6,0,-1,6,-3,7,1,-2
15:25:27.168581,-2,-3,1,5,2,0,1,-2
15:25:27.169581,-4,-2,-1,-5,-8,-2,1,-4
15:25:27.176577,1,0,0,1,3,-1,4,4
15:25:27.183571,-1,1,-1,1,-3,4,-1,-3
15:25:27.198566,-1,-1,-3,2,-2,-1,0,-2
15:25:27.199562,-4,-1,-2,-2,-12,-1,1,-4
15:25:27.213554,2,-2,1,4,1,-2,2,-1
15:25:27.221549,3,2,1,-3,3,2,1,4
15:25:27.236539,-4,-2,-2,11,2,2,0,0
15:25:27.243535,-4,-4,-2,1,-4,3,-2,-3
15:25:27.258524,-1,-1,0,-2,2,4,-5,-1
15:25:27.259522,-1,1,1,0,2,3,1,1
15:25:27.273513,-5,-2,-2,-1,-2,1,-3,1
15:25:27.281512,-6,-2,-1,-1,-5,-1,2,0
15:25:27.296502,-1,1,-3,-2,-3,0,0,-3
15:25:27.303500,-2,-4,-4,-1,-1,-1,-1,-1
15:25:27.318486,1,1,1,2,-12,-2,-1,-4
15:25:27.319488,-1,-2,-2,-4,0,0,-1,-4
15:25:27.333480,-1,-6,-1,-3,-7,1,3,3
15:25:27.341474,-8,-1,-1,-1,-2,0,7,-2
15:25:27.356465,-3,-1,-4,-1,-1,-1,-1,-2
15:25:27.363461,-1,0,1,0,-2,1,5,-1
15:25:27.378448,0,3,-3,-3,-5,-3,-5,-7
15:25:27.379448,-5,-3,0,-1,4,3,2,-3
15:25:27.393442,1,1,0,-1,-5,-3,-6,0
15:25:27.401437,-5,-4,-1,3,13,-1,-2,-4
15:25:27.416428,-5,-5,0,2,-10,-4,-2,-4
15:25:27.424423,-8,2,-1,2,4,0,0,-3
15:25:27.438414,3,-1,1,0,2,1,2,1
15:25:27.439413,0,1,-1,2,1,5,4,2
15:25:27.454405,2,-4,-3,-1,1,-1,5,0
15:25:27.461400,6,0,2,2,3,-2,0,4
15:25:27.483389,-4,-1,1,0,1,-1,-1,-4
15:25:27.484384,-4,-1,-1,-3,-1,-1,2,-1
15:25:27.498377,-6,-3,-5,-2,5,-3,-8,-6
15:25:27.499373,8,-1,-3,-1,-5,-3,1,-3
15:25:27.514367,-3,-3,0,-4,-8,-6,0,-1
15:25:27.521363,5,0,-1,0,3,-2,-2,3
15:25:27.536353,-13,-5,-1,-3,-8,-5,-7,-8
15:25:27.544349,-1,1,0,0,0,-2,-1,-1
15:25:27.559339,3,-2,-5,-2,5,7,1,3
15:25:27.566335,0,-1,3,4,5,-1,-9,1
15:25:27.581325,3,3,-1,-2,-2,-1,-3,1
15:25:27.582322,-5,-2,0,5,3,3,1,-1
15:25:27.596316,-1,-6,-2,-2,-9,-3,-1,2
15:25:27.603312,5,-1,0,-7,-3,-7,-13,1
15:25:27.626298,-1,1,-1,5,-2,4,5,4
15:25:27.627296,0,-1,0,2,3,-2,0,-6
15:25:27.641289,1,-1,-2,2,3,-1,-5,-1
15:25:27.642288,1,0,-2,-2,-5,-1,0,-3
15:25:27.656279,-2,-2,-3,2,1,-1,-6,-2
15:25:27.663274,5,0,0,0,-1,-2,3,2
15:25:27.679265,2,2,3,11,-1,0,3,2
15:25:27.686261,2,-1,3,1,0,0,-2,-4
15:25:27.701251,-3,-2,-1,-3,-2,-3,-1,-1
15:25:27.702251,-1,-3,3,0,2,1,3,-1
15:25:27.716242,0,0,-4,-7,-9,-5,-12,-5
15:25:27.724237,2,-2,1,2,1,-1,0,-1
15:25:27.739227,-1,-1,0,1,3,0,8,-1
15:25:27.746223,-3,1,-1,4,-7,0,2,0
15:25:27.761214,0,1,1,4,12,3,2,2
15:25:27.762214,1,-3,0,2,-4,-5,1,0
15:25:27.776204,-3,-1,-1,-2,-1,0,1,1
15:25:27.784206,-5,-5,-1,-2,0,0,-4,-2
15:25:27.806186,-1,0,-2,9,3,1,0,1
15:25:27.807185,3,0,0,-2,-8,-2,-1,-1
15:25:27.821177,-5,-3,2,0,6,-1,2,-1
15:25:27.822176,-10,-4,-2,-4,-10,-3,-2,-6
15:25:27.836167,1,-1,-1,-3,0,-1,1,-1
15:25:27.844163,2,3,2,-1,1,-3,-1,-1
15:25:27.859154,-4,-2,-3,7,-3,-5,-6,-5
15:25:27.866146,-4,-2,-1,-3,-3,-5,-2,-3
15:25:27.881139,-3,-1,0,-2,-2,-2,-3,1
15:25:27.882139,10,2,-4,-5,-6,-2,0,1
15:25:27.896130,-5,-1,-1,-3,-9,-7,-7,-4
15:25:27.904126,-3,-2,-1,2,1,-2,-2,-5
15:25:27.919116,3,-3,-2,-1,0,-5,0,-2
15:25:27.926110,-9,-2,-5,-3,-4,-2,-3,-3
15:25:27.949097,3,2,1,2,-2,-2,16,2
15:25:27.949097,-1,1,-3,-5,-2,1,-4,-1
15:25:27.956091,1,1,-1,-2,1,1,-1,-3
15:25:27.964086,-5,-5,-3,-4,-3,0,-3,-3
15:25:27.979079,3,-1,0,-2,3,2,2,0
15:25:27.986073,-4,-3,-2,2,4,-1,-2,-1
15:25:28.001065,-2,-3,-2,-1,-1,2,-3,1
15:25:28.002065,-2,0,1,-1,2,-1,-1,-3
15:25:28.016058,0,-3,-1,-1,-3,-4,-2,-6
15:25:28.024051,2,1,-1,-1,-2,5,4,2
15:25:28.039042,-1,-2,-3,-4,2,-1,-2,2
15:25:28.046037,2,3,-2,-1,-2,-3,3,2
15:25:28.061028,1,0,-2,-4,-1,2,-4,-2
15:25:28.062027,-1,0,-1,1,1,-7,-8,-1
15:25:28.076018,7,-1,-1,0,0,-3,0,3
15:25:28.084014,-2,-3,0,-1,-3,-1,1,-4
15:25:28.099005,-4,0,-4,-3,-6,-4,-1,-3
15:25:28.106000,0,-2,-2,-4,-4,-5,-5,-2
15:25:28.120990,6,1,-1,1,1,-2,1,0
15:25:28.121987,-4,0,2,14,-4,-5,-8,-8
15:25:28.136978,2,0,1,6,-10,-4,-3,2
15:25:28.143977,-5,0,0,-3,1,-4,-8,-9
15:25:28.158967,-3,0,-5,0,1,-5,-12,0
15:25:28.165963,-4,-5,-4,-1,-6,-4,-2,0
15:25:28.181950,0,1,1,0,6,5,-2,0
15:25:28.181950,-3,-3,-4,-4,-9,-4,-2,-4
15:25:28.196941,-1,2,-5,-1,-3,-7,-2,-4
15:25:28.203940,0,-1,-2,-3,2,2,-1,3
15:25:28.218930,-4,2,-2,-3,-4,3,1,1
15:25:28.225930,-4,0,-3,-5,0,0,-1,0
15:25:28.240916,-2,1,-3,3,4,2,0,1
15:25:28.241913,-3,-2,-5,-4,-2,0,1,1
15:25:28.256906,-2,2,2,-1,2,0,1,-2
15:25:28.263902,7,-2,-4,-2,0,1,1,3
15:25:28.285889,4,0,2,-2,2,7,4,3
15:25:28.286886,-2,-4,-3,-1,-3,-1,-1,-3
15:25:28.301877,-1,0,-1,-1,4,1,-8,-1
15:25:28.301877,-4,0,2,1,-2,2,5,-1
15:25:28.315869,0,0,-1,1,0,1,-2,-1
15:25:28.323865,-2,-5,0,-4,-3,-3,3,-2
15:25:28.338856,-4,1,0,-4,-6,-5,-9,-11
15:25:28.346848,-1,-1,-3,-1,6,0,1,1
15:25:28.368837,-1,1,-1,-2,-2,-2,-1,-4
15:25:28.369837,10,2,-3,3,4,4,0,5
15:25:28.376833,-2,1,2,-2,-1,-3,-2,-3
15:25:28.383828,-10,-4,-5,-3,3,-1,-4,-6
15:25:28.398819,-2,2,1,-3,0,-3,1,-3
15:25:28.406814,-2,1,0,-1,3,-1,-6,3
15:25:28.420805,-2,0,-2,-2,-3,-1,0,-1
15:25:28.421803,-4,0,-1,-2,-6,2,-1,-1
15:25:28.436792,-1,-4,3,-2,2,-5,-11,-4
15:25:28.443791,-1,-4,-2,-4,-7,-4,-1,0
15:25:28.458781,1,0,-1,7,3,1,4,1
15:25:28.466776,-1,-2,-2,3,6,-1,1,0
15:25:28.481765,0,-4,-3,9,-7,1,4,-1
15:25:28.481765,-6,-2,0,3,0,-4,-1,-6
15:25:28.496757,-4,-3,-3,-6,-4,-1,2,0
15:25:28.503754,-1,-1,0,0,1,2,-1,0
15:25:28.518744,-5,0,-1,-5,0,0,-6,3
15:25:28.526739,1,-1,-1,0,-3,0,2,3
15:25:28.548726,-3,2,-1,0,0,0,-2,-2
15:25:28.549724,-2,-3,-1,-4,-3,-2,-4,-6
15:25:28.563716,-2,2,-2,-2,0,-1,-13,-3
15:25:28.564716,-2,-2,2,-1,0,1,4,1
15:25:28.578704,1,-1,0,2,4,3,2,-1
15:25:28.586699,-1,-2,0,2,-7,0,2,1
15:25:28.601693,-1,0,1,-4,-1,0,-5,-2
15:25:28.608687,-2,-6,-4,-4,1,-2,-3,-2
15:25:28.623679,1,0,-1,1,-1,1,1,0
15:25:28.624679,1,-1,-4,-1,-2,-1,-8,2
15:25:28.646662,1,0,-1,0,3,-1,-1,-1
15:25:28.646662,-3,-3,-1,-1,-7,-5,-5,0
15:25:28.661655,-1,0,-2,3,4,-2,1,-5
15:25:28.668651,6,4,2,-4,3,-3,-2,2
15:25:28.683641,-2,0,0,3,0,-1,2,-5
15:25:28.684641,-7,-2,-1,1,5,0,-4,-2
15:25:28.698630,-1,2,1,-2,-2,4,5,0
15:25:28.706628,2,2,2,0,1,2,-2,-3
15:25:28.721619,-5,-5,-5,-1,-3,-4,-2,2
15:25:28.728612,-6,-2,-2,0,-1,2,3,-6
15:25:28.743605,-3,0,-2,0,-4,3,-7,-4
15:25:28.744605,-6,-4,0,0,0,5,3,2
15:25:28.758595,-1,-1,-3,-1,0,-3,-3,-4
15:25:28.766591,-3,-3,-2,-1,-3,-4,-3,-3
15:25:28.781579,-3,0,0,0,-2,-1,-1,-3
15:25:28.788575,-1,-5,-2,-2,-5,-5,-2,-4
15:25:28.803568,-5,-3,1,-1,1,-1,0,1
15:25:28.804567,2,5,0,-1,0,-4,-2,-2
15:25:28.818555,2,-3,1,3,4,3,1,2
15:25:28.826553,1,2,0,-5,-4,-5,-7,-1
15:25:28.841544,-5,-1,0,7,-1,1,-2,-1
15:25:28.848536,-3,0,-3,-1,-2,-3,-1,-3
15:25:28.863529,0,0,-1,-3,-8,-6,-4,-6
15:25:28.864528,1,1,1,-2,2,2,-2,1
15:25:28.878523,-2,-2,0,-3,2,0,-1,1
15:25:28.886516,-1,-5,-4,-2,2,-5,-11,-2
15:25:28.901507,0,-1,2,-1,-3,0,11,3
15:25:28.908502,-1,3,-1,-1,0,0,-1,4
15:25:28.923493,0,2,-1,1,1,2,-1,-2
15:25:28.924489,-4,1,-1,-3,-5,-8,-3,1
15:25:28.938483,-3,0,-1,-2,0,1,-1,-1
15:25:28.953475,0,-4,-1,-3,-8,0,-2,1
15:25:28.968465,-2,-1,-3,-2,-2,-1,-3,-4
15:25:28.969465,-1,-1,-2,0,-3,-1,8,1
15:25:28.984453,-2,-2,2,-2,-3,-2,-1,-2
15:25:28.984453,-8,-5,-1,-4,3,-3,-1,-1
15:25:28.998447,-1,1,-1,-6,-11,-3,10,-1
15:25:29.006442,2,-2,-1,1,7,-1,2,0
15:25:29.021432,-1,-2,-4,-6,-4,0,0,-1
15:25:29.029426,-1,2,3,11,4,4,6,5
15:25:29.043420,-3,1,0,0,-3,-2,-2,-3
15:25:29.044415,-1,-2,0,-2,-1,-2,1,2
15:25:29.058409,1,1,-4,-4,0,-1,-3,-6
15:25:29.066404,1,2,2,1,0,-8,-14,3
15:25:29.081395,-1,-2,2,0,5,5,0,-5
15:25:29.089389,3,0,0,0,2,5,4,2
15:25:29.104380,-4,-1,0,1,-8,-1,-3,-2
15:25:29.104380,-1,-2,1,-1,4,-4,-1,-1
15:25:29.126368,-3,-3,-1,-2,0,-3,-1,-5
15:25:29.127366,-1,-2,-1,-7,-2,1,1,1
15:25:29.141358,-1,-1,1,2,5,-2,-3,-3
15:25:29.149353,-3,0,1,10,1,-4,-10,-4
15:25:29.164343,0,-2,0,0,-10,-3,-2,0
15:25:29.164343,0,1,2,4,3,1,-1,-3
15:25:29.179334,4,1,-2,-1,-1,-2,-2,1
15:25:29.186330,-7,-2,0,-4,-1,-2,0,-4
15:25:29.201321,-3,-2,-2,1,-6,-3,-3,-4
15:25:29.209316,4,-3,-4,-2,3,0,9,2
15:25:29.223307,9,3,4,1,-1,2,6,9
15:25:29.224304,-1,-2,-2,0,0,3,-2,-1
15:25:29.239297,0,-2,-1,0,-7,-6,-4,-2
15:25:29.246293,2,1,4,1,-12,-3,2,3
15:25:29.261284,-6,-3,-2,-6,1,0,-3,-4
15:25:29.269276,0,-2,0,1,0,-1,-5,-7
15:25:29.291265,-1,2,2,1,1,1,1,0
15:25:29.292264,-7,-1,-1,-2,-9,-1,7,0
15:25:29.299265,-3,-1,-2,0,1,-2,-2,-3
15:25:29.306254,0,2,-2,-1,-2,-2,0,-2
15:25:29.321244,-1,0,0,6,0,-5,-8,-1
15:25:29.329241,1,0,-2,-1,-3,-3,-2,-5
15:25:29.344229,0,0,-1,5,-3,-1,0,3
15:25:29.344229,-1,2,-2,-6,-4,1,1,-2
15:25:29.359222,-4,2,0,1,3,-2,2,2
15:25:29.366217,0,-2,-2,-3,-1,-1,1,0
15:25:29.381208,-4,-2,-3,-6,-1,-3,-4,0
15:25:29.389204,7,1,-1,2,-10,0,-5,2
15:25:29.404195,-7,-2,-3,-3,2,1,-4,0
15:25:29.404195,-1,0,0,-3,-2,0,1,-3
15:25:29.419184,-1,-2,-2,-2,-5,-9,-14,-2
15:25:29.426181,0,1,-2,-2,-1,2,-1,-2
15:25:29.441170,3,2,3,-13,2,0,11,4
