timestamp,emg1,emg2,emg3,emg4,emg5,emg6,emg7,emg8
16:41:50.613040,-3,-2,-3,-4,-4,-2,0,0
16:41:50.630030,-2,1,0,-1,4,0,-1,0
16:41:50.631029,0,-1,1,-5,-2,-4,0,-2
16:41:50.653015,-2,3,2,9,-3,-4,-1,-1
16:41:50.654014,1,-6,-3,2,7,0,-2,-3
16:41:50.668005,-2,-3,-1,-2,-2,-1,-1,1
16:41:50.676001,-2,0,-1,0,0,1,1,3
16:41:50.689995,-1,0,-2,-2,-1,-3,-4,-2
16:41:50.690991,0,-3,1,-1,-5,1,-6,0
16:41:50.712977,-2,0,0,-3,4,2,1,2
16:41:50.713977,0,-4,-1,-3,-1,1,-1,-2
16:41:50.727968,-5,-2,1,-1,-4,-5,0,1
16:41:50.735963,-2,1,-3,-2,4,-1,-1,-2
16:41:50.750954,-3,2,-2,-1,-3,-2,2,0
16:41:50.751967,2,0,-2,-15,-4,-1,-3,-3
16:41:50.772947,2,3,2,2,-3,-3,0,-1
16:41:50.773940,0,-2,-3,-3,-2,-2,-2,0
16:41:50.787931,-2,-6,-1,-2,-1,-4,-3,-1
16:41:50.794929,-2,2,1,2,0,1,0,0
16:41:50.809921,-2,-2,0,1,-2,0,-1,0
16:41:50.810916,-2,-2,-2,0,1,-1,1,-3
16:41:50.832902,2,1,-1,-2,-2,-4,-1,0
16:41:50.833902,-1,-1,1,-1,1,1,0,0
16:41:50.847895,-4,-4,-2,-3,2,0,-2,-2
16:41:50.855889,-1,-1,-2,-1,2,-4,0,-1
16:41:50.869908,-1,-3,-5,-1,-3,-2,0,2
16:41:50.870879,-2,-5,-3,-3,-6,1,-2,-2
16:41:50.892866,-1,-1,1,13,2,0,-2,-1
16:41:50.893865,-3,-1,1,-1,-2,-5,-4,1
16:41:50.908861,-4,-1,0,-5,-1,-1,2,-1
16:41:50.915852,3,-3,-2,2,-1,0,1,1
16:41:50.930844,-2,-3,0,0,0,1,0,-1
16:41:50.931844,-4,-2,-2,-3,-3,-3,0,1
16:41:50.952831,7,2,1,1,-1,1,-2,3
16:41:50.953829,-1,0,-2,0,-2,-3,-1,-4
16:41:50.968823,-1,0,0,-1,9,-1,-1,-1
16:41:50.975818,-2,1,-1,1,-4,-1,-5,0
16:41:50.990809,2,2,2,-5,-1,-2,0,0
16:41:50.991805,-4,-4,-3,0,-3,-2,1,-2
16:41:51.013793,1,1,-1,-1,-6,-3,1,0
16:41:51.013793,2,-2,2,-13,-5,-2,-1,-4
16:41:51.028782,-2,0,-2,-2,2,-2,-1,-3
16:41:51.035781,-2,-1,-2,-1,-1,-1,-3,-1
16:41:51.050771,-7,-5,0,3,-1,-2,-3,-4
16:41:51.051769,-2,1,-1,-3,-3,-3,1,-1
16:41:51.073754,-1,0,-2,2,1,3,-2,0
16:41:51.073754,-2,-6,1,-3,-2,0,-4,-2
16:41:51.088745,-1,0,1,-1,0,-2,1,1
16:41:51.095740,-3,-3,-1,-3,-4,1,-1,-3
16:41:51.110732,-3,0,1,1,3,0,2,-3
16:41:51.111731,-4,-1,1,0,-3,-3,-1,-3
16:41:51.133719,0,-1,-3,-4,-3,1,-1,0
16:41:51.140713,-4,-2,-3,-3,-2,2,-2,-1
16:41:51.148708,-3,-5,1,-4,-1,-1,0,-1
16:41:51.155703,-3,0,2,0,-1,-1,0,0
16:41:51.170697,-2,1,0,0,0,1,-2,0
16:41:51.171695,-1,0,1,0,-7,0,-1,1
16:41:51.193682,-2,-3,0,2,0,1,0,-2
16:41:51.193682,-3,-3,-3,-1,4,-1,-1,2
16:41:51.216668,-2,2,0,1,-1,-2,0,3
16:41:51.216668,-1,-4,-1,0,-6,-2,-3,-3
16:41:51.231658,-3,-1,-2,-5,-1,0,-3,-1
16:41:51.231658,0,1,-4,-1,2,2,-1,3
16:41:51.253642,0,0,3,-3,-1,-1,-2,1
16:41:51.253642,-2,-1,0,11,-1,-1,1,0
16:41:51.275629,-1,-1,-2,-5,0,1,-1,0
16:41:51.276632,0,2,1,-2,1,-3,-2,0
16:41:51.290620,-4,-2,-2,1,0,1,-1,0
16:41:51.291622,-1,-2,0,-1,-1,-1,3,1
16:41:51.313606,0,0,-1,0,-1,-1,-1,-2
16:41:51.313606,-2,-2,-2,-3,-5,-5,1,0
16:41:51.335595,1,-2,0,1,-3,3,-2,0
16:41:51.336592,-4,-1,1,2,2,0,-3,-2
16:41:51.350583,-1,-3,-3,2,-2,-1,-1,1
16:41:51.351582,-4,0,1,-2,-2,1,2,2
16:41:51.373568,-3,0,0,8,5,2,0,-6
16:41:51.373568,-1,-1,-2,-2,0,0,-4,-1
16:41:51.395557,-1,1,-3,2,5,0,-3,-3
16:41:51.396556,5,2,1,-2,2,-1,2,-2
16:41:51.410545,-3,1,-5,-3,0,-5,0,-1
16:41:51.411546,-1,-3,-3,3,-5,-5,-1,-3
16:41:51.433531,0,-4,0,0,-1,0,1,-1
16:41:51.434534,-1,1,0,0,-3,0,-2,-3
16:41:51.455520,0,-4,-3,1,-3,-1,-2,0
16:41:51.456520,-2,1,0,0,0,-6,-3,2
16:41:51.470508,0,0,-1,-3,0,0,1,1
16:41:51.471508,-1,-1,0,-7,-1,0,1,-1
16:41:51.493497,-4,0,-4,-1,-1,-2,-4,-3
16:41:51.493497,0,-1,1,-3,-1,-1,1,-2
16:41:51.516483,-6,2,0,0,-2,-2,0,-2
16:41:51.516483,-1,-2,-4,-2,-2,-4,-1,-1
16:41:51.538465,0,0,-1,-1,6,3,2,-1
16:41:51.538465,-2,1,1,-2,1,-4,2,1
16:41:51.553457,-1,-4,1,-1,-4,-5,-3,0
16:41:51.554459,-2,-1,-1,-1,-3,-3,-4,-3
16:41:51.575446,0,-3,-3,-2,-3,0,-2,-2
16:41:51.576445,3,-4,-2,1,0,0,0,-1
16:41:51.591433,3,0,-1,-4,-3,0,0,-1
16:41:51.598430,-9,-3,-1,1,2,1,-1,-2
16:41:51.613420,-3,-3,-1,-2,1,4,0,-1
16:41:51.613420,-1,-1,-1,6,-5,-4,-1,-2
16:41:51.636405,-2,-1,0,1,2,2,-3,1
16:41:51.636405,-3,-5,-1,0,2,-2,-1,-2
16:41:51.651396,3,-1,-2,-3,1,1,-1,6
16:41:51.658395,0,1,1,-2,-6,-4,-4,0
16:41:51.673382,1,-3,0,-2,-1,1,1,-1
16:41:51.673382,1,0,-1,1,-1,-2,-1,0
16:41:51.695368,-2,1,1,0,1,2,1,-2
16:41:51.696368,-3,-2,0,-1,-5,-1,-1,-1
16:41:51.711362,2,-3,-1,-1,4,1,-2,-2
16:41:51.718361,-3,-2,-2,-5,-7,-2,0,0
16:41:51.733346,-1,0,-2,-3,3,2,1,-3
16:41:51.734348,-4,2,0,-3,-3,-1,-3,-1
16:41:51.756331,0,-3,-2,-1,1,0,1,1
16:41:51.756331,-3,0,2,-1,-2,-1,0,-1
16:41:51.771321,1,-1,0,2,1,-1,-1,2
16:41:51.778320,1,0,0,1,0,-3,0,-2
16:41:51.793308,4,0,-1,0,-4,-4,2,-2
16:41:51.794307,1,-1,-1,-2,1,2,2,1
16:41:51.816295,-4,-3,-1,-4,5,4,-2,-1
16:41:51.817294,-2,-3,0,0,-1,-1,-1,-1
16:41:51.831285,-4,-3,-2,-2,-1,1,0,2
16:41:51.838280,2,-2,0,8,-4,-1,1,0
16:41:51.853271,0,-3,1,-2,6,-1,-1,-1
16:41:51.854273,-1,2,-1,0,-4,-3,-2,-1
16:41:51.884252,2,1,-1,2,1,-1,0,2
16:41:51.884252,-1,0,0,1,-1,1,1,0
16:41:51.891250,-3,-1,-1,-6,-3,-3,0,1
16:41:51.898244,-4,0,0,-2,4,-3,0,1
16:41:51.913236,-1,-3,-3,0,-3,0,1,-1
16:41:51.914241,-1,1,-2,0,-5,-4,-1,-3
16:41:51.943215,-2,0,-1,0,1,0,-2,0
16:41:51.944216,-1,-1,-4,0,-3,0,-1,-1
16:41:51.951214,-3,-4,0,8,5,-3,-2,-2
16:41:51.958206,0,-1,1,0,2,-1,-2,0
16:41:51.981192,-1,0,-1,0,-1,0,-1,3
16:41:51.981192,2,3,1,-1,0,1,-1,0
16:41:51.996182,-2,-2,-1,-2,1,1,0,0
16:41:51.996182,0,-3,0,0,-4,-3,-2,0
16:41:52.011174,1,-4,0,1,0,4,0,2
16:41:52.018169,-6,1,0,-1,-1,-2,-2,1
16:41:52.033159,-1,0,1,-1,-1,0,0,-3
16:41:52.034161,1,2,0,-3,0,-1,-3,-2
16:41:52.056147,2,-2,0,2,-1,1,-3,-2
16:41:52.056147,-1,-2,0,-1,2,-2,-3,-2
16:41:52.071138,-1,-4,-3,-5,-3,0,1,-2
16:41:52.078134,0,0,-1,-7,1,3,-2,-1
16:41:52.093124,-4,-1,1,0,1,-2,-3,-4
16:41:52.094121,-2,0,0,0,-5,-3,0,2
16:41:52.116109,0,-2,-1,0,-1,-1,-4,-1
16:41:52.116109,0,-4,-2,-2,0,0,0,1
16:41:52.131101,1,1,-1,-1,-1,0,-2,2
16:41:52.138094,-1,2,-3,2,0,1,2,-1
16:41:52.153085,-5,0,-1,-5,-1,-3,-1,-1
16:41:52.154084,-2,0,2,-2,-1,1,0,0
16:41:52.176071,-3,-1,-1,-2,-11,-1,-3,-4
16:41:52.176071,-2,-1,0,2,2,-2,-4,-1
16:41:52.198060,-1,-1,-2,-5,-1,1,-1,-4
16:41:52.199057,0,-2,-3,-3,-4,-1,-3,-2
16:41:52.213050,0,-2,-1,-1,0,-1,0,-1
16:41:52.214048,3,-1,-1,-2,-1,2,1,-2
16:41:52.236036,0,-1,0,0,2,-5,-1,0
16:41:52.243032,1,-3,-3,0,0,0,-2,0
16:41:52.259019,0,-1,4,7,1,2,1,2
16:41:52.259019,-1,-2,-1,-6,0,-4,-2,-1
16:41:52.273011,0,-4,-3,-3,-3,-2,-1,-2
16:41:52.274013,0,-3,0,-2,-1,-3,-1,1
16:41:52.295998,1,1,-4,0,1,0,-1,3
16:41:52.295998,0,-4,-1,-1,-1,-1,-2,-2
16:41:52.317983,1,1,0,4,3,-2,-2,-3
16:41:52.318985,-1,2,2,1,2,1,-1,-1
16:41:52.332976,-1,2,-4,-1,1,-2,-5,2
16:41:52.333973,0,-3,-1,-3,0,-1,-1,0
16:41:52.355960,-1,-2,-1,-9,-8,-3,0,-2
16:41:52.355960,-1,1,-3,2,2,1,-1,-2
16:41:52.377946,-1,-1,-1,-5,0,-1,2,-1
16:41:52.378945,-3,-1,1,-1,0,-2,-3,0
16:41:52.392939,-1,1,1,2,-3,-3,-1,-3
16:41:52.393938,-1,1,-3,0,6,2,-1,1
16:41:52.415922,0,-2,-3,-1,0,-2,0,-1
16:41:52.415922,-2,-3,-4,-1,2,2,-2,-3
16:41:52.437909,-1,1,0,0,-3,-3,-1,-1
16:41:52.438908,-3,-1,-4,9,2,-1,2,1
16:41:52.452900,1,-1,1,-1,-3,-2,-1,-1
16:41:52.460897,-1,-2,-4,1,0,-1,0,-2
16:41:52.475885,0,-1,1,-2,-1,1,2,1
16:41:52.475885,-1,-1,-1,0,-4,-2,-1,0
16:41:52.498871,2,0,0,-7,-35,-2,-3,0
16:41:52.498871,1,0,-2,-8,8,-1,2,0
16:41:52.512861,1,-1,2,4,20,1,1,1
16:41:52.520860,-1,3,1,1,15,-1,-3,-2
16:41:52.535850,-4,-4,-4,5,39,-5,-2,-3
16:41:52.536847,2,0,1,10,25,0,-1,-1
16:41:52.558833,-2,-5,1,0,-3,0,0,-3
16:41:52.558833,-1,-2,-3,-2,-2,-3,-1,2
16:41:52.573830,-1,-1,2,-5,-5,-2,-1,-4
16:41:52.580820,-2,-1,-1,8,5,3,1,-1
16:41:52.595815,-1,-3,-1,-5,-8,-7,2,0
16:41:52.596810,-1,-3,-7,-16,21,2,-2,-2
16:41:52.618798,1,-1,1,1,9,0,-1,-4
16:41:52.618798,-4,2,1,1,0,-1,0,1
16:41:52.633790,1,-1,-2,-4,5,-6,0,-3
16:41:52.648777,1,1,0,9,15,-2,-1,0
16:41:52.655776,-1,-4,-3,2,2,0,-2,-1
16:41:52.655776,-1,-1,-3,-5,0,3,-2,0
16:41:52.678760,-1,0,-4,-2,-4,-5,2,1
16:41:52.678760,-2,0,-3,-3,-5,0,-1,-4
16:41:52.693751,-3,-2,0,0,-3,1,-1,-1
16:41:52.700748,0,-3,-2,4,0,-3,-2,-2
16:41:52.715739,-1,-3,-2,-3,6,2,0,0
16:41:52.716739,-1,-2,-1,-6,15,0,1,-1
16:41:52.738722,-1,0,2,-8,-29,-3,1,0
16:41:52.738722,-1,0,-3,2,15,0,-1,-1
16:41:52.753713,-1,-3,-3,-3,-6,-4,0,-3
16:41:52.760708,2,0,-2,-2,-5,2,1,-2
16:41:52.775702,-2,1,3,-3,-4,-2,0,-2
16:41:52.783697,0,-2,-2,1,2,-2,-2,0
16:41:52.805683,-3,0,1,4,4,0,-1,-3
16:41:52.806683,-1,-1,0,-2,-2,0,1,0
16:41:52.812678,-2,2,0,6,-2,-4,-4,-1
16:41:52.820673,-1,-4,1,-3,-6,-2,-2,-2
16:41:52.835665,1,0,2,6,26,4,-1,-4
16:41:52.836663,-2,2,-1,1,-1,-2,1,1
16:41:52.858648,-1,-3,-3,6,25,-1,-2,-1
16:41:52.858648,-1,2,2,-4,-1,-6,-1,-1
16:41:52.873641,-1,-3,-3,0,1,2,-1,0
16:41:52.880634,0,1,-1,-4,0,0,-2,-1
16:41:52.895624,-2,-3,-2,9,-1,-3,-2,0
16:41:52.896624,-2,0,1,4,0,-4,-3,-2
16:41:52.918610,3,-3,-3,3,23,-1,-1,1
16:41:52.919618,1,-3,0,-2,4,0,1,3
16:41:52.933601,-2,1,-2,1,3,-1,-2,-3
16:41:52.940599,1,0,1,-4,-2,2,2,0
16:41:52.955587,-3,-3,0,0,-1,-1,-2,0
16:41:52.956590,-1,-1,-3,-6,-3,0,-2,0
16:41:52.978572,6,0,-1,3,5,-1,-1,1
16:41:52.978572,-2,2,-2,0,1,1,-3,1
16:41:52.993564,-2,-3,1,16,20,-3,-2,-2
16:41:53.000561,-2,-3,-3,-6,6,0,-1,-4
16:41:53.015550,1,1,-1,-13,-45,-5,0,2
16:41:53.016549,0,-1,-2,2,15,-1,0,-3
16:41:53.038535,1,4,0,-11,-5,0,-2,1
16:41:53.038535,-3,-3,-3,0,-7,-1,-1,-1
16:41:53.053529,-2,-3,0,-3,-3,-1,0,1
16:41:53.060523,-2,-2,-2,4,2,-4,-2,-1
16:41:53.076514,1,-2,1,-1,0,0,0,-2
16:41:53.076514,0,0,-1,1,13,-2,1,-4
16:41:53.098499,0,0,1,-9,-22,-2,-2,-2
16:41:53.099501,-3,-2,-1,-3,4,-1,-3,-2
16:41:53.120488,-2,0,-1,4,12,1,1,1
16:41:53.121484,11,2,1,2,0,0,-1,1
16:41:53.135478,-4,-1,-1,-4,-9,-2,-2,2
16:41:53.136475,1,1,2,4,13,-3,-3,2
16:41:53.158464,0,3,3,2,21,-1,-1,-1
16:41:53.159464,-1,-2,-1,19,25,-2,1,-1
16:41:53.180450,-3,1,1,-3,-8,2,0,-2
16:41:53.181449,-2,-3,-2,-6,1,2,-1,-3
16:41:53.195438,-4,-2,0,0,-7,1,-1,0
16:41:53.196441,-1,3,-2,13,16,-3,-3,-2
16:41:53.218425,-1,1,-3,-5,2,2,-1,1
16:41:53.219427,-1,2,4,19,28,1,-2,-1
16:41:53.241410,-2,-4,-3,-3,1,-8,1,0
16:41:53.241410,-2,0,-2,0,7,2,-5,-2
16:41:53.255404,-2,0,2,11,28,1,-1,0
16:41:53.256401,-1,0,-1,-6,6,-2,-2,-1
16:41:53.278390,-3,-3,5,3,-40,3,-1,-5
16:41:53.279389,-3,-7,-7,6,30,4,-2,-5
16:41:53.301375,2,2,7,18,25,12,6,3
16:41:53.301375,0,-1,-4,-42,-45,-5,-1,0
16:41:53.315364,2,-1,9,26,21,-5,0,1
16:41:53.323360,2,1,2,35,55,15,2,5
16:41:53.338350,3,2,3,10,24,10,2,4
16:41:53.345348,4,0,1,-16,31,5,-1,0
16:41:53.361337,-1,0,5,33,-26,2,-1,5
16:41:53.361337,-10,-11,17,99,127,11,-11,-11
16:41:53.375329,15,19,10,-43,91,108,19,15
16:41:53.383325,6,-5,-14,-76,127,-13,0,4
16:41:53.398315,11,24,11,-6,-128,-41,9,8
16:41:53.399315,-5,-20,-27,-94,114,-22,-8,-2
16:41:53.420301,15,31,48,23,-128,42,19,17
16:41:53.421301,-22,-28,-101,-116,-128,-128,-30,-23
16:41:53.436291,-27,-14,53,119,-128,51,-3,-20
16:41:53.443288,-3,-21,-103,-128,127,-44,-26,-11
16:41:53.458279,4,-1,37,-1,127,127,10,12
16:41:53.459275,-24,-84,-102,31,127,-79,-27,-17
16:41:53.481261,34,45,23,26,127,79,30,34
16:41:53.481261,8,41,-16,-128,-128,-128,5,3
16:41:53.496264,2,-16,-56,0,-128,-65,-7,-4
16:41:53.503251,-9,-73,-114,-128,127,-16,-5,-3
16:41:53.518241,15,40,70,127,-43,62,2,9
16:41:53.519241,9,23,15,-120,-87,38,12,9
16:41:53.541224,5,-15,-30,-40,127,-33,-1,8
16:41:53.541224,5,44,59,1,-106,-106,-8,-3
16:41:53.556218,2,3,26,127,127,127,29,18
16:41:53.563210,33,-36,6,59,-128,-97,-17,-13
16:41:53.578201,18,66,23,-128,33,-96,1,19
16:41:53.579201,-34,-70,-10,120,-128,-128,-35,-34
16:41:53.601190,39,124,88,55,18,-128,10,32
16:41:53.602186,-29,-128,-123,29,127,127,10,-12
16:41:53.616180,33,100,116,117,127,-103,8,18
16:41:53.623176,32,19,-10,127,127,127,33,26
16:41:53.638167,-7,-91,-128,-128,-128,-128,-37,-2
16:41:53.639164,-75,-106,-91,80,33,-23,7,-50
16:41:53.653157,-25,-101,-109,127,127,127,-17,-7
16:41:53.654157,29,92,36,127,-128,-128,-25,32
16:41:53.676141,7,42,38,-128,-128,-93,1,4
16:41:53.683139,-8,-90,-96,-128,-2,-24,-3,0
16:41:53.698127,-4,-28,-43,-128,-128,49,2,-7
16:41:53.699127,19,65,80,12,-128,-128,-3,1
16:41:53.728108,-3,-31,-23,100,45,-84,-9,-4
16:41:53.729108,-8,-18,-7,-74,-31,-39,-4,-4
16:41:53.736103,0,11,10,-82,-128,-95,6,-5
16:41:53.743099,4,18,21,-94,-128,-104,-6,-3
16:41:53.758089,-17,-44,-42,-95,-128,45,0,-8
16:41:53.759089,-4,-20,-45,-128,-128,-128,-14,-2
16:41:53.781076,-26,-43,-18,67,97,73,-6,-16
16:41:53.781076,-4,-4,5,-22,39,3,1,4
16:41:53.796069,15,33,32,90,18,3,8,10
16:41:53.803064,-23,-54,-54,-74,-61,-66,-8,-16
16:41:53.818056,-13,-17,-14,107,127,73,-1,-9
16:41:53.819053,-4,-16,-38,-18,127,-38,0,1
16:41:53.848037,9,22,30,127,127,127,25,9
16:41:53.849033,-5,-30,-59,-128,-128,-93,-9,-2
16:41:53.856031,12,29,3,-41,-128,-77,7,8
16:41:53.863027,-28,-75,-71,7,-128,-128,-27,-16
16:41:53.879015,4,26,25,6,-128,-16,-6,0
16:41:53.879015,-2,-5,7,80,24,10,4,0
16:41:53.901001,-4,-4,-2,57,68,-94,4,-3
16:41:53.901001,-7,4,18,35,127,114,6,-4
16:41:53.915992,0,15,34,57,46,54,3,0
16:41:53.930983,-16,-31,-2,23,-7,99,-2,-16
16:41:53.937981,5,11,-4,-77,-113,-95,-3,3
16:41:53.938978,-7,-21,-26,35,-63,51,-3,-7
16:41:53.960963,10,28,5,-128,-128,-128,-7,6
16:41:53.960963,-18,-40,-31,-42,-82,-8,-13,-12
16:41:53.982951,1,11,19,46,127,66,11,-1
16:41:53.983953,-11,-37,-52,108,-59,-21,-12,-9
16:41:53.997944,6,12,10,-43,64,80,8,4
16:41:53.998941,-2,9,16,110,74,59,-3,-1
16:41:54.022925,2,-6,-3,113,127,78,11,8
16:41:54.022925,1,4,4,62,-128,-3,2,2
16:41:54.042917,3,8,5,16,6,-78,-6,2
16:41:54.043915,1,2,1,5,65,-89,-6,4
16:41:54.057906,-3,-14,2,-10,-25,-27,-7,-1
16:41:54.058903,7,10,-5,-128,-128,-72,-5,5
16:41:54.080889,-26,-56,-38,46,48,-30,-11,-16
16:41:54.080889,10,24,18,-6,-48,4,6,7
16:41:54.102876,2,2,3,4,-8,-18,-3,1
16:41:54.103878,-6,-11,0,11,105,58,7,-3
16:41:54.125861,-10,-23,-27,-16,-9,14,-3,-4
16:41:54.125861,-4,4,-4,127,40,15,-3,-3
16:41:54.140855,7,28,30,-128,-2,-103,-1,4
16:41:54.140855,-13,-28,-16,-34,-15,-5,-5,-6
16:41:54.162842,7,20,27,36,-26,-30,2,6
16:41:54.163840,5,20,17,13,-82,-128,-4,4
16:41:54.177835,-9,-23,-23,3,-112,-7,-4,-6
16:41:54.178831,3,6,7,-19,-37,-16,-3,0
16:41:54.200816,-11,-7,6,48,87,-8,-3,-10
16:41:54.201815,-13,-16,-14,14,14,-27,-7,-7
16:41:54.222803,3,5,3,-29,0,3,4,2
16:41:54.223801,-1,0,2,33,127,36,6,-3
16:41:54.237794,3,6,-3,-25,-38,-12,-4,-1
16:41:54.238794,-2,5,-3,-10,-18,-12,-7,-10
16:41:54.260778,-12,6,8,12,15,25,19,21
16:41:54.261780,26,13,6,7,8,12,39,32
16:41:54.282767,115,12,-13,-14,-7,-1,56,14
16:41:54.283763,127,9,-5,-2,-1,9,-55,0
16:41:54.297756,13,-6,-4,-7,-17,-19,63,-2
16:41:54.298755,-60,-88,2,8,27,64,77,-20
16:41:54.320743,50,-26,-15,-18,-37,-17,84,16
16:41:54.321744,23,63,34,21,21,-8,127,2
16:41:54.342729,-128,-48,-51,-33,-37,-20,-128,4
16:41:54.343727,127,-93,39,36,44,127,127,95
16:41:54.357719,-106,63,-5,-5,-33,-94,6,-86
16:41:54.358717,16,-61,21,21,29,41,110,45
16:41:54.380704,-6,43,7,28,-77,15,27,-12
16:41:54.381703,127,-3,15,20,-9,41,105,60
16:41:54.403690,-81,-37,-45,57,-104,-112,-99,-90
16:41:54.403690,0,15,2,47,51,15,64,11
16:41:54.418680,40,2,10,-128,-128,-48,-23,16
16:41:54.425679,28,15,26,18,-37,70,-29,6
16:41:54.441668,22,-128,-50,-10,2,20,-20,1
16:41:54.448661,10,36,8,-87,-107,-42,-124,83
16:41:54.463653,-128,61,49,127,65,-85,65,-45
16:41:54.463653,127,-128,-27,12,126,127,127,35
16:41:54.477646,42,72,23,-5,-47,-62,73,-12
16:41:54.478643,-20,16,20,3,127,14,55,-21
16:41:54.500632,127,-55,-5,127,127,-12,127,-15
16:41:54.501629,-80,68,8,34,-128,-80,-99,-25
16:41:54.523615,-77,-35,-55,-33,53,-33,19,-21
16:41:54.523615,4,55,9,-75,-128,-79,-128,91
16:41:54.538605,-81,5,12,35,-123,-4,115,-77
16:41:54.538605,-31,10,-5,41,-45,10,3,-1
16:41:54.560592,25,-53,5,84,15,6,9,-21
16:41:54.561593,-62,-14,-28,23,-128,-21,59,7
16:41:54.583577,127,-9,16,79,127,19,-31,68
16:41:54.584577,-51,-8,0,-20,59,12,-7,17
16:41:54.605564,-6,-3,-12,-37,-128,-52,60,-48
16:41:54.606569,3,-10,-24,-74,-128,22,22,-24
16:41:54.620557,-7,-12,3,65,64,-15,42,-36
16:41:54.621557,36,9,-2,38,-10,-15,-46,6
16:41:54.643541,-10,-20,-29,-67,-118,-27,0,-12
16:41:54.643541,65,-26,15,50,-78,27,33,39
16:41:54.658531,18,10,24,95,27,12,-13,41
16:41:54.658531,23,17,27,30,-128,-33,5,3
16:41:54.680519,-14,-9,-17,-28,127,7,-4,-14
16:41:54.681517,-34,-20,2,84,49,-10,-89,-23
16:41:54.703504,-45,-6,20,52,-79,-7,13,-7
16:41:54.703504,-8,3,-7,4,8,4,9,-10
16:41:54.718494,-21,-3,24,-2,-51,22,-40,-4
16:41:54.719494,34,7,6,38,61,29,27,24
16:41:54.740481,32,8,3,-60,14,-6,15,31
16:41:54.741483,4,2,-5,32,64,-8,-2,1
16:41:54.763466,-3,-3,-5,-12,-33,-27,-2,4
16:41:54.764466,1,3,-14,6,-128,21,29,8
16:41:54.778460,4,1,-19,-16,42,25,17,13
16:41:54.785455,2,0,-4,-4,8,-11,-2,-17
16:41:54.800446,-11,0,3,-6,45,3,-5,-9
16:41:54.801443,4,2,-9,-50,-113,-29,-77,1
16:41:54.823429,-14,-13,-5,91,107,0,13,-3
16:41:54.823429,-2,10,3,4,-12,4,12,0
16:41:54.845416,-21,-2,4,65,27,-8,4,-5
16:41:54.846415,8,-16,-13,-12,27,-12,-11,-3
16:41:54.868404,-15,0,-7,-21,-128,-7,-14,-17
16:41:54.869405,2,2,-4,-13,25,-2,7,20
16:41:54.883395,-8,-5,-2,43,23,-29,-19,-12
16:41:54.884394,-10,-5,-2,15,-6,5,-5,-13
16:41:54.905378,-9,-2,1,23,31,-3,-5,0
16:41:54.906380,2,1,-3,-48,-94,-5,-5,-1
16:41:54.920370,-6,-6,3,4,4,4,19,-9
16:41:54.921368,15,4,10,-9,-88,0,15,-1
16:41:54.943355,-4,2,2,25,12,-8,0,-10
16:41:54.943355,3,3,-9,-48,-61,-12,6,4
16:41:54.965340,-9,-7,0,4,12,0,-11,-24
16:41:54.966343,4,2,-2,12,-7,-1,-4,-1
16:41:54.980334,-13,-10,6,28,-35,-3,-11,-19
16:41:54.981332,4,6,3,-3,-75,-17,4,0
16:41:55.003318,15,5,6,12,30,17,3,8
16:41:55.003318,-7,-1,0,9,-19,-22,-7,0
16:41:55.026306,-5,-7,-3,-14,-41,0,-3,-4
16:41:55.026306,1,-11,0,9,21,-1,-6,-14
16:41:55.041294,-2,-4,-8,-29,-51,-9,-3,-2
16:41:55.041294,-4,-6,-8,-39,28,-5,-5,-7
16:41:55.063280,1,1,1,-34,-35,8,-1,1
16:41:55.064283,-9,-7,-1,-43,-99,-1,-5,-3
16:41:55.086266,-18,0,-5,14,-1,-14,-14,-9
16:41:55.086266,-14,-2,1,-16,-23,-9,-3,-7
16:41:55.101258,-8,-2,3,20,-26,2,5,-1
16:41:55.101258,-9,-4,0,-24,87,28,1,-3
16:41:55.123243,-1,2,-5,-26,-16,-13,1,6
16:41:55.124244,-4,-3,-9,0,127,38,-1,-1
16:41:55.146229,-17,-1,13,41,31,8,-5,-20
16:41:55.146229,5,1,2,1,-29,-10,-2,0
16:41:55.161220,0,3,1,-1,50,5,1,-4
16:41:55.161220,8,-6,3,39,80,2,-1,-9
16:41:55.183209,-4,0,3,8,16,-11,1,-3
16:41:55.184206,2,-1,2,0,4,6,10,2
16:41:55.206193,2,2,4,-40,-61,2,4,0
16:41:55.206193,3,-4,-3,29,35,4,-2,2
16:41:55.221185,-10,-2,6,13,12,-3,-2,-11
16:41:55.221185,-5,-3,-3,4,-6,3,0,3
16:41:55.243169,9,3,-3,-6,-88,-7,5,9
16:41:55.244173,2,-8,-1,3,10,1,0,-5
16:41:55.266157,6,-2,0,3,14,-8,0,2
16:41:55.266157,-11,-6,-2,3,-3,2,-12,-18
16:41:55.281148,1,2,0,-79,-115,9,4,-1
16:41:55.281148,-21,-11,-4,33,52,-4,-6,-10
16:41:55.311127,0,3,-1,3,99,6,5,0
16:41:55.312128,-6,-4,-2,5,2,16,-3,-1
16:41:55.326123,3,1,1,-12,-15,5,1,-2
16:41:55.326123,-2,-1,-2,0,11,9,4,2
16:41:55.341108,-9,-2,-1,0,-9,-3,-1,-2
16:41:55.341108,2,1,0,-28,-26,-4,1,1
16:41:55.363097,-4,2,7,15,118,4,1,0
16:41:55.364094,-5,-2,-3,3,39,3,2,-2
16:41:55.386080,7,4,2,9,20,5,6,2
16:41:55.393079,-3,-5,1,-11,-1,-9,-2,-6
16:41:55.401071,-1,-3,-1,16,-97,-16,0,0
16:41:55.401071,-8,-8,-4,-6,7,-3,-9,-9
16:41:55.423057,-10,-5,-1,0,2,9,-2,8
16:41:55.424057,5,-6,-1,4,15,7,-5,-7
16:41:55.446043,-7,-2,-1,51,47,9,5,0
16:41:55.446043,2,-1,5,-5,42,3,0,1
16:41:55.461035,0,4,5,11,4,-9,-2,0
16:41:55.461035,0,0,3,6,11,3,-4,-1
16:41:55.483023,-6,-2,-3,-6,-3,0,-7,-6
16:41:55.484020,4,2,2,0,-1,1,0,3
16:41:55.506005,-3,3,-2,13,33,1,-1,-5
16:41:55.506005,-3,3,2,-21,7,-13,-1,-1
16:41:55.520996,-1,1,1,-23,-20,2,4,4
16:41:55.520996,-6,-4,-1,4,0,-5,1,-1
16:41:55.542983,-6,-2,-3,1,-9,-4,-1,-1
16:41:55.550978,-13,-5,1,-26,-32,-1,-2,-8
16:41:55.565969,-7,-5,-8,8,9,-4,-4,-3
16:41:55.565969,-1,0,2,48,104,13,1,-3
16:41:55.580963,-2,5,2,5,50,-1,-1,-6
16:41:55.581959,2,4,-2,-6,-3,0,0,2
16:41:55.602948,-1,-2,-1,-11,-45,-7,-1,-1
16:41:55.603945,-11,-8,-2,6,19,0,-2,-7
16:41:55.625934,-3,3,3,-9,-14,0,4,1
16:41:55.626933,4,4,-3,-11,-19,3,0,1
16:41:55.647921,13,4,1,19,17,-5,-1,4
16:41:55.648917,-5,3,-1,-4,5,3,-6,-2
16:41:55.662911,-1,0,-1,-3,44,4,-3,0
16:41:55.663908,5,1,0,-9,2,-11,3,-1
16:41:55.685895,-2,-5,2,53,73,8,-1,-1
16:41:55.685895,-4,-3,-5,-19,-4,8,-3,-6
16:41:55.708880,4,-1,2,1,11,-1,0,-1
16:41:55.708880,-3,2,1,1,-7,-2,-1,2
16:41:55.722872,-5,1,-1,4,44,-2,-3,-4
16:41:55.723874,-3,0,4,5,18,2,-1,-4
16:41:55.745860,-7,-1,-2,-6,-2,0,-6,-5
16:41:55.745860,-4,0,-1,-2,-62,7,2,0
16:41:55.775842,0,-4,-1,3,85,8,0,0
16:41:55.775842,-1,-1,2,-2,-7,0,-1,-1
16:41:55.782836,4,-2,0,-13,-64,3,2,-1
16:41:55.783834,-1,0,1,-2,-4,-12,0,0
16:41:55.805820,-12,-7,-3,3,2,1,3,1
16:41:55.805820,-2,-3,-5,-2,5,8,3,1
16:41:55.827808,1,2,2,-6,-89,-12,-2,-1
16:41:55.828806,-7,-6,-5,-7,11,0,-2,-3
16:41:55.842800,-4,-1,0,-13,-61,-13,-3,-1
16:41:55.843802,-9,-6,-3,12,33,2,-2,-6
16:41:55.865783,-3,2,-3,-19,-6,-6,1,0
16:41:55.866784,-5,-1,2,7,5,-3,-2,-8
16:41:55.887771,-1,1,-2,-3,-29,1,0,-2
16:41:55.888768,17,5,1,3,35,-9,-5,7
16:41:55.903762,1,1,-5,-79,-96,-6,2,-1
16:41:55.903762,-1,-2,2,18,42,-2,-7,2
16:41:55.925746,1,2,-3,23,36,0,-1,-5
16:41:55.925746,-1,-3,-3,4,0,-8,-4,-5
16:41:55.948731,2,-6,3,14,19,2,5,4
16:41:55.948731,-12,-8,-5,3,0,-4,-6,-2
16:41:55.962724,-2,1,-3,-15,29,11,1,-1
16:41:55.963722,-2,4,3,14,71,8,1,0
16:41:55.985708,1,-2,-4,-14,4,-13,-2,-4
16:41:55.986710,0,0,0,-5,12,7,3,4
16:41:56.007695,0,3,0,-3,-9,-3,-1,-3
16:41:56.008694,-2,2,-3,-3,-8,1,1,2
16:41:56.023685,-5,-3,4,3,0,-5,-24,-3
16:41:56.023685,13,0,-3,-4,15,5,-7,21
16:41:56.045674,-3,-2,0,9,26,-7,-2,-7
16:41:56.046673,0,2,-4,-18,-28,-11,-1,-1
16:41:56.068658,-2,-3,4,-3,38,9,1,-1
16:41:56.068658,-4,0,0,-11,-14,-8,-5,-5
16:41:56.083647,-2,0,-3,-27,-41,-3,-3,1
16:41:56.083647,1,1,0,15,21,3,-2,5
16:41:56.105637,4,2,-2,1,0,1,-1,1
16:41:56.106633,-7,-4,-5,-10,-20,-4,-5,-8
16:41:56.128620,-1,-1,-6,4,53,4,2,5
16:41:56.128620,-2,-3,0,1,7,1,-3,-7
16:41:56.143611,4,0,0,14,17,2,2,-2
16:41:56.143611,0,0,3,-4,-17,-5,-1,-3
16:41:56.165597,-7,-3,-3,17,19,0,-5,-6
16:41:56.166601,3,-1,-4,1,18,1,-3,-5
16:41:56.188582,4,-2,1,-2,-6,-4,4,0
16:41:56.188582,-6,-4,-2,-1,-4,1,1,-6
16:41:56.203573,4,-5,-3,-2,-3,-2,0,1
16:41:56.203573,-1,0,1,-3,-1,0,-3,0
16:41:56.233556,-1,2,2,15,-26,-8,0,-1
16:41:56.233556,-1,2,3,1,-75,-8,-4,0
16:41:56.255541,-9,-10,-7,13,12,-6,-5,-4
16:41:56.256541,-5,-4,1,16,12,-1,0,-4
16:41:56.263539,-1,2,0,-5,-12,-1,0,1
16:41:56.271534,0,3,4,5,-8,-7,2,-1
16:41:56.285522,2,-6,-5,-4,-1,0,0,-3
16:41:56.286525,-4,-3,0,-4,-4,-3,-1,0
16:41:56.308508,-1,-1,-1,-12,-10,-1,-1,-1
16:41:56.308508,0,2,0,11,10,-1,-3,-4
16:41:56.323502,5,3,2,-7,-2,-3,1,5
16:41:56.331494,10,-1,2,10,34,0,-2,-2
16:41:56.345488,2,4,-6,2,4,1,0,1
16:41:56.346488,-9,-4,-6,2,-27,-1,-5,-6
16:41:56.368471,5,-3,1,-5,10,6,-1,-1
16:41:56.369474,-5,0,1,2,5,-4,-9,-5
16:41:56.383464,1,-2,-1,0,-3,2,-4,-2
16:41:56.391460,-3,-2,-3,-12,-4,-2,4,-2
16:41:56.405451,0,-1,-1,-14,-17,-10,-5,3
16:41:56.406450,-2,-5,0,-3,-17,7,-2,-4
16:41:56.428436,-3,-6,-3,1,10,5,3,1
16:41:56.428436,3,2,-1,0,-5,-1,-1,1
16:41:56.443425,-6,1,1,3,2,0,-2,1
16:41:56.451423,-3,1,4,-1,-51,-4,0,1
16:41:56.465412,7,-1,-1,2,9,2,2,-1
16:41:56.466410,-5,-6,-10,-7,-7,-4,-6,0
16:41:56.488397,3,2,0,-29,-22,-5,1,2
16:41:56.488397,7,3,1,10,26,12,-1,5
16:41:56.503388,1,-1,-1,-17,13,3,0,-3
16:41:56.511385,2,2,1,11,6,-7,-2,3
16:41:56.525374,3,0,3,1,-16,-1,-2,-1
16:41:56.526376,6,-2,-1,-1,14,0,3,-1
16:41:56.548360,-10,-3,-1,3,11,-3,2,2
16:41:56.548360,0,-1,-5,-29,-16,-1,-2,-1
16:41:56.563351,7,-1,0,5,2,-2,0,-3
16:41:56.571347,-3,0,0,-18,-13,0,2,2
16:41:56.585337,-2,2,0,17,8,-20,-3,-6
16:41:56.586336,-3,-5,-5,-23,-3,2,-1,-3
16:41:56.608323,1,1,5,9,-3,1,3,2
16:41:56.609325,0,-1,-2,10,6,-5,0,-2
16:41:56.623313,-1,0,-1,-5,3,2,1,0
16:41:56.632307,0,2,6,7,-16,-1,3,1
16:41:56.653293,-4,-3,-2,1,4,2,-3,-1
16:41:56.653293,-1,-2,-4,13,-1,4,1,-1
16:41:56.668284,-3,0,-1,6,-38,-12,-2,-5
16:41:56.668284,5,-1,1,13,27,5,-1,0
16:41:56.683275,3,-4,-3,7,28,1,-1,-3
16:41:56.690275,-4,0,0,0,-2,3,-3,-1
16:41:56.705261,3,5,-3,-7,-3,-4,0,0
16:41:56.706261,-3,-2,-4,3,3,-4,-1,-3
16:41:56.728248,1,0,-4,-6,15,0,0,2
16:41:56.728248,-3,2,1,7,-35,-5,-4,-3
16:41:56.743238,-1,-1,0,-8,18,4,1,2
16:41:56.750234,0,3,-2,6,18,1,2,2
16:41:56.765226,0,-4,-3,0,3,-1,5,0
16:41:56.766224,-1,-2,-4,-2,48,4,-2,-3
16:41:56.788210,-1,1,-2,0,13,-3,-4,4
16:41:56.788210,-3,-5,-3,9,-5,-3,-3,-4
16:41:56.803201,0,1,-3,-5,-8,-5,-3,-2
16:41:56.810197,0,-2,-1,9,-1,2,1,-1
16:41:56.825188,-6,-1,-5,-13,-6,-2,0,-1
16:41:56.826186,-2,2,-1,11,47,1,-2,1
16:41:56.848176,-5,0,-1,-11,-8,-6,-4,-2
16:41:56.848176,12,1,-7,-3,4,-1,-5,7
16:41:56.863164,-4,-2,1,8,-41,-6,-1,-2
16:41:56.871162,-4,-1,-1,8,17,3,-5,-2
16:41:56.885150,-4,3,-4,-6,-13,-1,0,1
16:41:56.886149,2,2,1,-15,-36,-10,3,-1
16:41:56.915137,-7,-4,-1,0,9,-8,-4,-7
16:41:56.916131,4,1,2,-7,-3,1,1,-2
16:41:56.930123,-3,1,-1,-22,0,2,2,2
16:41:56.931122,-5,-4,-1,13,30,1,0,0
16:41:56.945112,-3,-3,-4,-6,-21,1,3,-4
16:41:56.946113,-6,-2,2,-3,6,1,-1,-3
16:41:56.972096,13,-3,-2,-3,-9,-9,-7,-3
16:41:56.972096,0,-2,-2,-3,-1,-2,-4,-4
16:41:56.990085,-5,-1,-2,-1,24,-1,-2,-1
16:41:56.991086,-4,-4,-5,5,27,4,-2,-4
16:41:57.005075,3,0,0,5,-9,-5,-3,0
16:41:57.006076,-3,-1,-5,-38,-21,0,1,-5
16:41:57.028062,-6,-2,2,7,14,0,-4,-2
16:41:57.028062,6,2,1,-1,1,1,1,0
16:41:57.050048,-2,-6,-1,-9,19,1,3,3
16:41:57.051047,3,1,-3,-3,3,0,-1,-1
16:41:57.065038,3,6,4,4,-1,2,-2,1
16:41:57.066038,1,4,0,-10,14,7,-2,-4
16:41:57.088024,-4,0,1,7,32,5,2,-2
16:41:57.088024,-1,2,0,-4,8,0,0,-1
16:41:57.111009,5,2,-3,4,5,-2,0,-2
16:41:57.111009,1,2,0,-2,-4,0,-2,2
16:41:57.125001,2,1,0,-2,10,2,0,-1
16:41:57.126001,13,3,-2,-2,5,0,1,4
16:41:57.147987,-3,-1,-4,-15,-31,-5,-2,-2
16:41:57.147987,-3,-1,-1,29,39,5,-2,-1
16:41:57.169973,2,-3,1,-4,3,1,2,5
16:41:57.170973,-2,-1,-1,0,1,-8,-3,-3
16:41:57.184966,0,1,-5,5,0,0,-5,-4
16:41:57.185964,0,0,-3,-2,-2,-4,-4,-2
16:41:57.208949,-3,-3,0,-4,-5,3,2,-2
16:41:57.210948,1,-2,0,1,-4,-3,-2,1
16:41:57.237932,-1,-1,-1,6,12,4,1,-4
16:41:57.238931,-10,-9,-1,0,17,-2,-3,-5
16:41:57.245926,5,0,2,-17,-26,-10,-1,-4
16:41:57.252922,-2,0,-4,4,8,-2,0,-5
16:41:57.267912,-1,1,-1,-3,11,1,-1,2
16:41:57.268912,-5,1,-2,-1,0,0,2,-1
16:41:57.290899,-2,1,0,18,-1,-3,-2,-5
16:41:57.290899,0,3,0,3,-11,-2,0,1
16:41:57.305889,0,-2,-2,4,-21,-5,-1,-4
16:41:57.315883,-1,-1,-3,5,112,6,-1,-3
16:41:57.327875,-2,-1,0,7,40,3,-1,1
16:41:57.328875,-8,-3,2,-1,2,-2,-1,-1
16:41:57.349861,-1,-2,-1,-3,-6,-4,0,0
16:41:57.350862,1,0,-3,0,-1,-1,0,0
16:41:57.365853,1,1,0,-3,1,-2,2,2
16:41:57.372848,1,-1,1,9,1,1,1,1
16:41:57.387838,2,-1,0,-4,0,1,4,7
16:41:57.387838,-9,-3,-3,-1,-2,0,-4,-6
16:41:57.409825,3,-1,3,0,0,4,4,0
16:41:57.410824,0,-3,-2,0,-20,0,-3,0
16:41:57.425814,1,-2,-1,4,-24,5,3,-1
16:41:57.432810,2,-1,-4,-1,12,4,0,0
16:41:57.448800,5,1,3,1,-1,2,4,0
16:41:57.448800,0,0,0,0,0,2,-2,1
16:41:57.470787,-5,-2,-4,0,-9,-2,-4,-6
16:41:57.470787,-7,-5,-4,-7,-7,0,-3,-5
16:41:57.485778,-1,2,0,5,5,-1,1,-2
16:41:57.492791,-1,-1,0,-3,-13,-5,-1,-3
16:41:57.507764,2,-1,-2,6,-10,0,-1,-1
16:41:57.508764,-3,-3,-4,-2,-5,-3,1,-2
16:41:57.530750,-1,0,0,-4,-3,1,-3,-1
16:41:57.530750,0,0,-1,0,1,-2,-3,1
16:41:57.545741,0,-1,-3,-2,-4,-1,-1,1
16:41:57.552736,1,1,0,4,0,-1,-6,-4
16:41:57.567727,2,-2,0,2,-8,-3,-3,0
16:41:57.568726,-3,-1,-2,11,24,3,0,-5
16:41:57.590713,2,-2,-3,1,1,0,-1,-3
16:41:57.591712,-5,1,-3,-1,-4,0,1,1
16:41:57.605703,-1,-2,1,22,8,-2,0,-3
16:41:57.612701,1,0,-1,-3,5,0,-1,0
16:41:57.627689,0,-3,-2,-3,1,0,-1,0
16:41:57.628690,3,3,4,4,1,0,0,3
16:41:57.650675,-2,-2,-1,-1,0,-2,-3,0
16:41:57.650675,0,-3,-3,-1,8,1,-1,-2
16:41:57.665667,6,2,-4,-11,-25,-2,2,2
16:41:57.672663,-8,-5,-1,1,5,-6,-5,-4
16:41:57.687652,0,-3,0,7,2,-3,2,0
16:41:57.688652,-1,-1,-5,-3,-4,-1,-2,-3
16:41:57.710637,1,1,-1,-3,-1,-4,-5,-1
16:41:57.710637,-1,-1,-3,-16,-7,-1,5,7
16:41:57.725629,-4,-2,-1,-1,-1,-1,-2,-3
16:41:57.732624,-1,0,-1,-29,-65,-5,-4,0
16:41:57.747615,-10,-5,0,9,20,2,-3,-10
16:41:57.755610,-7,-2,-5,-5,1,1,0,-5
16:41:57.770601,-2,-2,0,-6,-10,-5,-3,-4
16:41:57.770601,-6,0,1,5,1,0,0,-3
16:41:57.792587,3,1,1,3,-4,-1,1,1
16:41:57.793587,-6,-3,-6,0,-12,-3,-5,-3
16:41:57.807578,-4,0,-1,-3,7,-1,0,-1
16:41:57.808577,-4,-2,-1,-4,-4,-2,0,-3
16:41:57.830564,0,-3,0,28,11,-3,0,-3
16:41:57.831564,-5,-2,-1,-2,2,1,1,3
16:41:57.852551,2,-1,-2,-3,-4,-4,-2,-2
16:41:57.853549,-2,2,4,1,1,-5,-1,2
16:41:57.867541,-1,1,0,0,-6,-2,0,0
16:41:57.868544,0,2,0,-4,5,-3,-2,-2
16:41:57.890526,2,3,0,0,-3,0,0,2
16:41:57.890526,0,-3,0,-1,-5,0,4,1
16:41:57.920507,-4,-1,-2,-3,-5,1,-1,-3
16:41:57.920507,2,-2,-1,1,3,-4,1,-3
16:41:57.927504,-3,2,-3,14,19,-3,0,0
16:41:57.928503,2,4,1,-1,-11,-4,0,4
16:41:57.950489,-1,-2,-2,-3,1,0,-2,-3
16:41:57.950489,-4,-2,-1,12,27,4,-1,-1
16:41:57.972477,-2,1,2,-6,-31,-4,1,-1
16:41:57.973475,1,-2,-3,-3,8,-3,-4,-4
16:41:57.987466,-3,2,0,-7,-1,-1,-1,-8
16:41:57.988465,1,3,0,2,-1,-3,0,3
16:41:58.010452,0,-2,-1,-1,3,4,-1,-3
16:41:58.010452,-4,0,-2,9,18,-2,-2,0
16:41:58.032438,0,-1,-1,13,-14,-5,0,-3
16:41:58.033438,0,-1,-1,-1,11,1,-1,-2
16:41:58.047429,0,-2,-4,-3,-14,-1,-3,0
16:41:58.048429,0,-3,-1,0,-4,-9,-1,-1
16:41:58.070417,-4,-1,0,-3,3,3,0,0
16:41:58.071415,14,1,1,0,2,-1,1,4
16:41:58.092402,6,1,-1,0,-4,3,1,0
16:41:58.093409,0,-1,1,3,-1,0,-1,0
16:41:58.107395,-1,0,0,0,0,-3,-1,-3
16:41:58.108404,-4,1,3,-11,-33,2,0,3
16:41:58.130378,1,3,-2,6,15,-1,-2,1
16:41:58.131377,15,5,0,-2,1,-2,1,5
16:41:58.153363,-1,-1,-2,-13,-3,2,-3,-1
16:41:58.153363,-2,-2,-3,0,-10,-5,-2,-4
16:41:58.168354,-1,1,1,3,12,-3,-1,0
16:41:58.175350,-3,-1,-1,-5,-5,-2,-1,-2
16:41:58.190340,-1,-2,-1,8,15,2,0,-2
16:41:58.191340,3,0,-3,-12,-31,2,-1,0
16:41:58.213327,2,-1,1,3,8,-1,2,1
16:41:58.213327,-1,0,0,2,0,-3,1,2
16:41:58.228317,3,-1,-4,-2,3,0,-2,1
16:41:58.235314,-4,-2,0,7,-3,0,-1,-1
16:41:58.250303,-5,0,-2,-4,-7,-5,-4,-5
16:41:58.251304,-2,-4,-2,-1,0,-2,-1,0
16:41:58.272291,-2,0,-3,-1,-1,-4,-3,1
16:41:58.273289,2,-2,1,15,40,1,2,-2
16:41:58.288280,-1,-4,-4,-2,4,-1,2,-1
16:41:58.295276,-1,-2,2,5,8,-4,-1,-5
16:41:58.310267,-2,-1,-3,-1,1,-1,2,0
16:41:58.311270,0,0,-1,-15,-7,-1,-3,-3
16:41:58.332254,2,-1,-3,3,-5,-3,-1,-1
16:41:58.333253,-6,-3,-1,-8,1,0,1,-3
16:41:58.348243,-1,-2,-3,-2,-1,1,-1,1
16:41:58.355238,0,3,-3,-7,-7,-5,-1,-2
16:41:58.370238,-3,-3,0,18,29,0,-2,-3
16:41:58.371229,5,-1,-1,2,-1,1,2,5
16:41:58.393215,0,2,2,-13,-28,-4,-3,0
16:41:58.393215,-4,0,-1,11,-23,-8,-4,-3
16:41:58.408205,-9,-5,0,1,20,2,-9,-9
16:41:58.415203,-2,0,0,-6,-5,-1,1,1
16:41:58.432191,1,-4,-2,-1,0,-1,-3,0
16:41:58.432191,1,-1,-1,-3,-16,-5,-2,-2
16:41:58.452178,-1,1,-1,13,24,1,4,4
16:41:58.453178,13,3,2,-4,-14,-6,0,4
16:41:58.468168,-3,0,0,3,9,0,-1,-1
16:41:58.475165,-1,1,0,-14,-37,-5,-1,0
16:41:58.490154,1,0,4,5,11,-1,-4,-1
16:41:58.491155,-4,-3,-1,-5,-4,-4,-3,1
16:41:58.514140,0,0,0,-4,-4,0,-1,-1
16:41:58.514140,1,-3,-2,0,-7,0,-3,-2
16:41:58.528131,-3,0,-1,-2,0,-2,-1,-2
16:41:58.543122,4,-3,0,-6,-6,-4,-1,2
16:41:58.550118,-2,2,0,0,6,6,0,2
16:41:58.551117,-3,-3,0,11,-17,-3,-1,1
16:41:58.574103,-12,-4,-2,-1,8,3,-1,-3
16:41:58.575102,5,0,-1,-9,-10,-1,-4,-2
16:41:58.606083,0,1,-1,2,7,-3,-2,-5
16:41:58.606083,0,-2,0,2,0,0,0,-4
16:41:58.634065,1,-2,-2,-1,-6,-1,-1,1
16:41:58.635065,-5,-1,-2,-3,-6,1,-4,-1
16:41:58.638063,0,-3,1,-2,-2,2,-2,-2
16:41:58.640062,-1,0,0,-1,-4,4,1,2
16:41:58.654054,3,-1,1,-6,1,1,0,1
16:41:58.658051,3,-2,1,0,-2,-5,4,1
16:41:58.670044,0,-4,0,-7,-5,2,0,2
16:41:58.671043,3,-2,-3,-4,-6,-3,-1,2
16:41:58.704024,1,0,-1,5,10,1,2,1
16:41:58.706022,-1,-3,-3,1,5,-3,1,-2
16:41:58.724011,-4,1,-1,-8,-30,1,0,-2
16:41:58.727008,-2,-1,0,-1,1,-2,-1,0
16:41:58.736002,-2,0,-4,-1,49,5,-4,-2
16:41:58.737004,1,-1,-2,-9,-22,-1,0,-1
16:41:58.761986,-1,1,1,0,0,-2,3,2
16:41:58.761986,-3,-2,-3,-2,-3,-3,-3,-2
16:41:58.767983,0,2,0,-14,-40,-2,-1,2
16:41:58.774978,-3,-5,-1,3,10,-2,1,-1
16:41:58.789969,0,-1,0,0,-2,0,1,2
16:41:58.790968,-5,-2,0,-5,-6,-3,-1,-4
16:41:58.812954,0,0,0,8,1,1,-1,-2
16:41:58.812954,-4,-3,1,-4,-3,-1,2,2
16:41:58.834940,-3,-1,-4,-22,-36,-8,-2,-3
16:41:58.835941,-3,-1,-1,2,13,0,-1,-3
16:41:58.850931,1,0,-4,1,-3,0,0,0
16:41:58.857927,-2,-3,-3,-3,-5,-2,1,1
16:41:58.872918,-4,0,-2,9,17,1,0,-1
16:41:58.872918,-2,1,-1,-5,-14,0,-2,-3
16:41:58.902898,1,0,-1,-3,0,0,2,-3
16:41:58.902898,0,-1,1,-2,2,2,0,0
16:41:58.909894,-3,-3,-3,-6,-12,-5,-2,-1
16:41:58.910894,1,-2,1,4,7,1,-2,0
16:41:58.932880,-2,1,-3,15,-40,-9,-1,1
16:41:58.932880,-1,-4,-3,6,18,-4,-3,-4
16:41:58.962861,-1,-1,-1,0,1,2,3,-3
16:41:58.963861,0,1,-1,-6,-3,-1,-2,1
16:41:58.969858,1,1,-1,1,1,-1,-1,1
16:41:58.970858,4,2,1,1,-2,2,-1,1
16:41:58.992843,0,0,-4,3,0,-2,-3,0
16:41:58.992843,-3,-2,0,-1,2,3,2,1
16:41:59.015828,-1,-3,-1,-11,-27,3,-2,-1
16:41:59.015828,-1,-1,-4,5,8,0,-1,-1
16:41:59.030821,1,1,2,2,-9,-5,1,1
16:41:59.037815,0,-3,-1,5,14,-4,0,-4
16:41:59.052805,-2,-2,-1,-2,-2,-3,-1,-3
16:41:59.053805,-4,0,1,-3,-6,-3,-6,-3
16:41:59.074795,-3,0,0,0,-2,0,0,0
16:41:59.075794,4,-1,0,0,-4,-8,1,0
16:41:59.090782,-2,-4,-1,-3,-1,-3,-1,-1
16:41:59.097779,-3,-3,-1,-1,-4,-1,-2,-3
16:41:59.115767,-6,-5,-3,-3,0,3,-2,-6
16:41:59.116766,2,-2,-4,-5,-9,-4,-4,0
16:41:59.134758,0,-1,0,-12,-34,-4,-3,-1
16:41:59.135755,11,3,-2,7,8,-1,-2,0
16:41:59.150744,-6,0,1,-4,1,1,-2,-4
16:41:59.165736,-4,-4,-2,-1,-1,0,-2,-5
16:41:59.172733,-1,-2,-3,-4,-1,0,-2,1
16:41:59.173733,2,0,1,-2,-3,-5,-6,-2
16:41:59.194720,-4,-3,-4,8,9,-5,0,-5
16:41:59.195719,1,-2,2,0,-2,-1,-1,1
16:41:59.210707,-3,-2,-1,-1,3,-3,-3,-3
16:41:59.217702,-1,2,-1,2,6,6,0,0
16:41:59.232705,-1,-2,-1,-4,-9,0,0,0
16:41:59.233694,2,0,-1,13,5,-1,-4,0
16:41:59.255680,1,-4,0,1,1,-3,1,2
16:41:59.255680,-2,1,-2,8,13,-3,0,-5
16:41:59.270673,1,-3,0,-7,-14,-3,0,1
16:41:59.285662,-1,-2,-3,2,0,-3,1,3
16:41:59.292658,0,-2,0,0,0,2,1,1
16:41:59.293657,-1,0,-2,-1,-9,-1,0,-2
16:41:59.315644,0,3,2,-1,8,6,2,-3
16:41:59.315644,1,0,-5,-9,-11,-3,1,-3
16:41:59.330634,1,0,0,-5,-27,-5,1,4
16:41:59.337632,0,1,-4,-12,-33,-1,-3,-1
16:41:59.352625,-1,-2,-4,0,5,-3,0,-1
16:41:59.353620,1,1,-2,-1,1,-1,0,-2
16:41:59.375606,-1,-1,-3,-2,-1,-1,1,1
16:41:59.375606,1,-2,-2,-3,-1,-4,-1,-1
16:41:59.397592,1,-2,1,2,1,-5,1,-2
16:41:59.398592,-2,-1,1,-12,-31,0,0,-1
16:41:59.412620,0,-3,-1,2,15,-7,-4,1
16:41:59.413583,-3,-1,2,1,14,1,2,-6
16:41:59.435570,-3,1,-2,-15,-23,-1,-5,-2
16:41:59.435570,-1,0,0,-2,2,0,-3,-1
16:41:59.457556,-2,3,0,0,-3,1,2,1
16:41:59.458555,-3,-5,-2,-4,-5,-7,-1,-1
16:41:59.480541,-5,-2,-6,-2,0,1,-1,-4
16:41:59.480541,6,5,3,3,4,1,3,3
16:41:59.495531,-1,0,-3,0,-13,-2,0,1
16:41:59.495531,1,0,0,-1,-18,-2,0,0
16:41:59.525513,0,2,-1,-4,3,1,-1,-1
16:41:59.525513,0,0,1,-5,-1,-1,2,-2
16:41:59.532509,0,1,1,12,-3,0,-1,0
16:41:59.533507,0,3,-2,-5,-4,-7,-2,-4
16:41:59.555496,-4,-3,-2,0,0,2,-4,-4
16:41:59.555496,-2,-4,2,1,0,0,-2,-3
16:41:59.577486,0,4,0,-3,-1,-1,0,-1
16:41:59.578480,-1,0,-1,-2,0,2,0,1
16:41:59.592482,-8,-3,0,-2,-3,-3,-3,-2
16:41:59.593471,-2,-2,-1,-1,-1,-2,-3,0
16:41:59.615458,0,-3,1,-5,-3,3,0,-3
16:41:59.616457,-3,-3,-6,0,4,0,-3,-1
16:41:59.637444,0,-2,-1,4,-3,0,0,-2
16:41:59.638443,-4,-3,-2,-17,-37,2,-2,-3
16:41:59.652435,0,0,1,16,11,0,-2,2
16:41:59.653435,-3,-2,-4,-2,0,-3,-2,1
16:41:59.675422,-7,-5,-3,-22,6,2,-1,-1
16:41:59.675422,6,0,-3,-4,-1,0,1,-3
16:41:59.698406,-4,-3,-1,-3,-9,1,-2,-1
16:41:59.698406,-7,-1,-3,4,7,6,0,-5
16:41:59.712399,0,-4,-2,-14,-33,-4,0,-2
16:41:59.713396,-1,-1,1,3,3,-1,1,-1
16:41:59.735382,-1,-2,0,-2,-4,-3,-4,0
16:41:59.735382,-3,0,2,-1,-36,0,0,-1
16:41:59.757370,-2,-1,-1,1,6,-4,-4,-2
16:41:59.758370,3,0,1,-2,0,-2,-1,0
16:41:59.772363,-2,0,-1,-11,-17,-4,-1,-3
16:41:59.773367,-1,-1,1,-2,-1,-7,-5,1
16:41:59.795346,3,-1,-3,5,10,1,-2,-1
16:41:59.796344,-3,0,1,-1,-5,-2,1,1
16:41:59.818331,-7,-5,-1,-2,-9,-9,-9,-6
16:41:59.818331,-4,-3,0,-3,-1,2,0,-2
16:41:59.833321,-2,-3,2,0,1,0,0,-3
16:41:59.833321,0,-3,0,-5,-37,-2,-2,1
16:41:59.855308,-2,2,-4,1,8,0,-1,-1
16:41:59.856308,-1,-1,-3,-1,0,-2,0,-2
16:41:59.878295,-1,0,0,-3,-3,-1,0,-2
16:41:59.878295,-3,-2,-2,2,6,1,-2,-2
16:41:59.893286,6,0,0,-2,-5,-10,0,6
16:41:59.893286,3,-1,-1,-3,-2,0,0,1
16:41:59.916271,-1,-1,-1,11,-3,0,1,2
16:41:59.916271,-2,0,-1,0,2,-3,-2,2
16:41:59.938259,0,1,1,-1,4,-4,-3,-1
16:41:59.939258,-2,1,-2,9,15,-3,-1,1
16:41:59.953249,5,1,-1,9,15,2,-1,2
16:41:59.968239,-2,-2,-1,-4,-5,-2,-2,-2
16:41:59.975234,2,1,-1,-15,-30,1,-2,-2
16:41:59.976235,-2,-1,-1,1,7,-1,0,-1
16:41:59.998221,-1,3,-1,0,1,-1,0,1
16:41:59.999220,-8,1,1,-1,-6,-4,1,-4
16:42:00.013212,2,-1,-2,-8,-2,-5,-1,-4
16:42:00.014211,-4,-5,-2,0,-2,-2,0,4
16:42:00.036196,5,-1,-1,-6,-12,-3,2,1
16:42:00.036196,-4,-3,0,-6,-19,-1,2,2
16:42:00.059183,-2,-4,-2,-1,6,5,0,2
16:42:00.059183,-4,-3,-1,-2,6,0,1,-4
16:42:00.073174,0,0,-2,7,16,-1,1,1
16:42:00.074173,0,0,-1,-7,-6,-1,-1,-2
16:42:00.096159,2,1,-1,0,1,-4,-3,-1
16:42:00.096159,-1,2,1,1,1,1,0,1
16:42:00.118146,-2,-3,-2,-2,-4,0,-3,-1
16:42:00.119149,-1,-3,1,11,-21,0,-1,-2
16:42:00.133140,0,4,-1,-9,7,-1,0,1
16:42:00.134136,0,0,0,0,3,-2,-1,-3
16:42:00.156122,0,-4,1,-3,-5,-9,-5,-1
16:42:00.156122,-2,-1,-2,1,-9,0,-2,-1
16:42:00.178109,2,0,-1,-9,-19,-7,-6,-4
16:42:00.179108,-2,-4,-2,0,4,-4,2,0
16:42:00.193102,0,-2,-2,1,5,3,-2,-2
16:42:00.194101,0,-3,1,-2,3,0,-3,1
16:42:00.216087,-3,1,-1,4,13,-5,-1,0
16:42:00.217084,-2,2,2,12,12,-3,1,-3
16:42:00.238072,-1,-3,1,2,3,2,-2,-1
16:42:00.239073,-2,-1,-3,-6,1,0,-1,0
16:42:00.253065,0,-1,-1,-12,-25,1,3,-3
16:42:00.254062,1,2,-1,3,9,0,-2,1
16:42:00.276049,-2,-4,-1,-1,-5,-2,-1,-4
16:42:00.276049,0,-3,2,0,2,2,-1,1
16:42:00.298034,5,-3,-4,11,21,2,-3,1
16:42:00.299033,-4,-3,-1,-9,-21,-7,-1,-3
16:42:00.313025,-5,-3,-1,4,2,1,-1,-1
16:42:00.314025,-2,-3,0,6,4,0,1,3
16:42:00.336010,0,-3,1,-7,-8,-1,-4,-2
16:42:00.336010,-4,1,2,5,2,1,0,-3
16:42:00.358997,4,0,1,-1,0,-3,-5,-1
16:42:00.358997,-2,0,-2,1,-1,-2,2,-2
16:42:00.372990,1,3,0,0,-3,-1,-2,1
16:42:00.373997,2,-3,0,1,-7,-6,-2,-1
16:42:00.395973,-2,1,1,-2,6,3,1,1
16:42:00.396973,-6,2,-2,1,4,0,-2,-3
16:42:00.417961,0,0,1,-1,4,1,1,-4
16:42:00.418959,-2,-2,0,10,-4,2,-1,0
16:42:00.432950,1,1,0,0,5,-2,1,-2
16:42:00.440946,-3,2,-2,-3,-3,-6,-4,-3
16:42:00.455935,0,-1,0,6,-14,-6,2,-2
16:42:00.455935,-1,-1,0,1,26,8,-1,-2
16:42:00.477922,2,-1,-4,-10,-16,-6,-3,-1
16:42:00.477922,-2,-2,0,2,6,-4,-6,-2
16:42:00.500908,-2,2,0,-2,1,-4,0,-1
16:42:00.500908,-1,0,-1,-4,-6,-2,0,0
16:42:00.515899,1,3,0,-4,5,7,-5,0
16:42:00.515899,1,-1,2,-2,0,-6,0,-1
16:42:00.537885,3,2,3,0,0,1,1,-3
16:42:00.538885,0,2,-4,-1,-8,-4,-4,-9
16:42:00.560871,-3,-1,-1,-1,-3,-3,0,2
16:42:00.560871,-1,-1,-1,2,0,0,-3,-4
16:42:00.575867,1,-2,-1,-10,-24,-4,0,-1
16:42:00.575867,0,-3,2,2,10,-1,-3,-2
16:42:00.597848,0,0,-3,9,8,0,-2,-1
16:42:00.598847,-1,-4,-1,-2,2,-1,-4,-1
