timestamp,emg1,emg2,emg3,emg4,emg5,emg6,emg7,emg8
15:39:13.438323,-1,2,1,-1,-1,-4,-1,0
15:39:13.438323,-1,-1,-2,-2,-1,-2,-3,-3
15:39:13.453315,-2,1,2,1,0,3,-1,1
15:39:13.462310,-4,2,-3,-1,-2,-2,-1,2
15:39:13.476300,2,-2,-3,-3,1,0,-1,-1
15:39:13.483296,-3,-2,1,0,-2,-2,0,1
15:39:13.497286,-3,0,-1,-1,-1,1,-3,-3
15:39:13.498287,1,1,-2,1,1,1,-1,-3
15:39:13.512291,-3,-3,0,-1,2,0,0,-4
15:39:13.520273,2,2,1,1,7,4,-1,-3
15:39:13.535262,0,1,-2,0,0,-3,-2,-1
15:39:13.542275,0,1,1,2,2,0,1,1
15:39:13.557257,-2,-1,-1,-1,1,0,1,0
15:39:13.558250,-1,2,1,0,-2,2,0,-1
15:39:13.572288,2,-1,-2,1,-1,-2,-1,1
15:39:13.580236,0,2,2,-1,-4,-1,0,0
15:39:13.595225,3,0,-3,-2,0,1,-1,-1
15:39:13.602224,0,-2,-2,-3,-1,-1,-2,-3
15:39:13.617226,1,-1,-1,-3,-3,0,1,0
15:39:13.618211,-1,2,-1,-1,1,-2,1,-1
15:39:13.632207,-2,0,2,0,-2,-4,1,0
15:39:13.640198,0,-1,0,2,-3,0,-3,-2
15:39:13.655189,-2,2,-1,-3,0,1,-2,-4
15:39:13.663184,-1,0,-1,-1,-3,-1,0,-1
15:39:13.678175,-1,2,0,3,0,1,-1,2
15:39:13.678175,-1,-1,-1,-2,2,0,-2,0
15:39:13.693165,-1,-3,-1,-1,-4,0,-2,-2
15:39:13.700161,0,2,1,-1,-1,-5,-1,1
15:39:13.715152,-1,-1,0,-3,-1,1,1,-2
15:39:13.723148,-3,-1,0,3,0,0,-1,0
15:39:13.738137,-1,0,0,-3,-1,-3,-1,-2
15:39:13.738137,-2,-1,-1,-2,-1,-3,-1,-2
15:39:13.753128,-2,-2,-1,-1,-4,-6,-1,-3
15:39:13.768122,0,-1,-1,0,0,-2,-3,-3
15:39:13.775115,0,1,0,-3,0,-1,1,3
15:39:13.783110,0,-1,2,-3,-4,-5,0,-3
15:39:13.798101,2,0,-4,-2,0,0,1,0
15:39:13.798101,-1,-1,-1,1,-1,0,-2,1
15:39:13.813094,-3,-4,-4,-2,-1,-4,-3,-2
15:39:13.820089,-2,2,-2,1,3,-1,-4,1
15:39:13.835078,1,-1,-3,-4,-1,-2,0,-2
15:39:13.843075,1,3,1,-3,-3,1,-2,-1
15:39:13.858063,-2,-2,-2,3,0,0,0,-1
15:39:13.859062,1,2,0,0,-3,-1,0,-1
15:39:13.873057,-2,0,0,1,0,0,2,-2
15:39:13.881051,3,1,-3,1,0,-3,-3,-4
15:39:13.903035,0,-2,-2,0,0,3,1,1
15:39:13.903035,-2,-1,-1,1,-3,-1,1,-2
15:39:13.918025,-2,2,0,-1,-4,-3,1,1
15:39:13.918025,-1,1,0,3,0,-1,-3,-2
15:39:13.933016,-1,-3,0,-3,0,-3,0,-1
15:39:13.940012,-1,-2,0,-1,2,1,-3,-2
15:39:13.955003,0,-1,-2,-1,-3,0,-4,0
15:39:13.962998,3,-2,3,-1,1,-2,-1,0
15:39:13.977989,-1,-4,-1,-3,-3,-4,-1,-3
15:39:13.984985,-2,1,-1,0,-1,-2,1,0
15:39:13.999974,-1,0,1,0,0,2,-4,1
15:39:14.000975,1,-2,0,-4,-2,0,1,2
15:39:14.015967,0,-1,0,-4,-1,-1,1,0
15:39:14.022961,-2,-1,0,-4,0,-1,-2,-2
15:39:14.037954,0,-1,-2,-5,-7,-3,1,1
15:39:14.045948,-3,-3,-2,-3,-1,0,-4,0
15:39:14.060940,0,-1,0,-1,-2,-3,-1,-1
15:39:14.060940,-1,-1,-1,-1,0,-1,-2,-3
15:39:14.075929,0,-1,-4,-2,0,-4,-1,-4
15:39:14.082926,0,0,-1,1,-1,0,0,3
15:39:14.097917,0,-3,0,-2,-3,0,-3,3
15:39:14.104912,-1,-4,-4,-2,0,0,0,-2
15:39:14.119903,-1,-1,2,4,1,0,-3,-2
15:39:14.120903,1,0,0,0,1,-2,2,2
15:39:14.135896,0,-3,0,1,-2,-2,-2,0
15:39:14.143887,2,0,-2,-3,-1,-3,-1,-2
15:39:14.157880,-1,0,-2,-3,2,2,1,-3
15:39:14.165876,-2,-1,-2,-2,-6,-3,-1,-3
15:39:14.187861,0,-1,1,0,2,-1,0,0
15:39:14.188859,0,1,-1,2,4,0,-3,0
15:39:14.195854,-1,-3,0,0,-5,-1,1,-1
15:39:14.210846,0,-1,0,-1,-3,0,-1,1
15:39:14.217839,1,0,0,-1,0,-1,0,-1
15:39:14.225835,-1,-3,0,-2,-3,-3,-3,2
15:39:14.240826,0,-1,-1,-1,1,1,-3,-1
15:39:14.240826,0,-1,-2,-1,0,-2,-3,-2
15:39:14.255819,0,-1,-2,0,-2,2,1,-1
15:39:14.262813,1,1,1,0,0,-1,0,0
15:39:14.277803,-3,0,-2,-2,-4,-1,-1,-4
15:39:14.285797,-1,-2,-2,0,0,-4,-2,-1
15:39:14.299791,-1,-3,0,-3,-3,0,-1,-5
15:39:14.300791,-1,-3,1,-4,1,0,-2,1
15:39:14.322778,-1,-2,-1,1,3,-1,0,-2
15:39:14.323776,-1,1,-2,-1,-1,0,0,1
15:39:14.337766,1,-3,0,-1,-1,2,-2,-3
15:39:14.345761,0,1,-1,-2,-1,-6,2,2
15:39:14.360752,-4,-2,-1,1,0,1,2,-2
15:39:14.360752,2,-1,1,-1,-2,-3,1,-1
15:39:14.375743,-1,1,-5,-2,-5,-1,-4,-1
15:39:14.382740,-2,-2,0,1,4,2,-1,0
15:39:14.397731,-2,-2,0,-3,-3,-3,0,-2
15:39:14.405726,-1,0,-1,-2,1,-3,1,-1
15:39:14.420715,2,-1,0,-5,-1,1,0,-1
15:39:14.420715,1,-1,0,0,0,-1,-1,1
15:39:14.435707,0,2,0,-1,-3,-3,1,-3
15:39:14.443700,0,-4,1,2,-4,-3,-2,-3
15:39:14.457693,1,-1,1,-1,-2,-4,-3,0
15:39:14.465689,0,-1,-2,-1,-4,1,-1,-3
15:39:14.480677,0,0,-1,-3,-2,0,0,0
15:39:14.480677,-4,-1,0,-1,-1,-1,-3,0
15:39:14.503668,-1,-3,2,-2,-2,-1,0,0
15:39:14.503668,-1,0,-2,0,2,1,-2,2
15:39:14.517654,2,-2,-1,-1,-2,0,0,-3
15:39:14.525649,-2,-3,-2,-1,-2,1,0,-1
15:39:14.540639,1,-1,-1,0,1,-2,0,0
15:39:14.540639,0,-2,-3,-1,0,2,-3,0
15:39:14.555631,0,-3,2,0,0,-3,-3,1
15:39:14.563629,-1,-2,-3,0,1,-1,2,1
15:39:14.577617,-3,-3,2,0,-1,-2,-3,-3
15:39:14.585614,2,-1,-3,-3,-1,1,-5,0
15:39:14.600605,-3,0,-5,0,-3,-3,1,-3
15:39:14.607598,-4,-1,-2,-2,-1,-1,-3,-1
15:39:14.615596,3,-1,-3,-1,1,-2,0,0
15:39:14.622589,0,-3,-2,-1,0,1,-1,0
15:39:14.637579,2,-2,-1,1,-1,-4,-2,-1
15:39:14.645574,4,0,1,-1,-1,1,0,0
15:39:14.660566,0,-2,-1,1,1,-1,-2,-2
15:39:14.661569,-3,-3,0,-1,-4,-3,1,-4
15:39:14.675557,-1,-3,0,1,-1,0,1,0
15:39:14.690546,-4,-1,-1,-1,-2,-2,-2,-4
15:39:14.697544,1,-2,-4,-2,-2,0,1,-1
15:39:14.705540,-1,-1,-2,-1,-1,-2,-2,-3
15:39:14.720528,0,0,-1,-3,-6,-1,-1,1
15:39:14.720528,0,2,0,0,1,-3,1,-3
15:39:14.735519,-3,-1,-3,-2,0,0,1,-1
15:39:14.743514,0,-1,-1,1,-3,-6,-3,-1
15:39:14.758506,0,-1,0,0,7,10,2,2
15:39:14.765503,-5,-1,-1,-3,-3,-1,-1,0
15:39:14.780493,-1,-3,-1,-4,-3,0,-3,-2
15:39:14.781494,1,1,-4,2,-1,-3,0,-3
15:39:14.795481,2,-1,-1,-1,0,3,1,0
15:39:14.802479,-2,-5,-1,2,-1,-2,1,-1
15:39:14.818470,-2,1,1,-1,5,1,-1,-1
15:39:14.825464,1,-4,1,-1,0,0,-10,-9
15:39:14.840454,-3,0,0,2,1,0,3,5
15:39:14.840454,-1,-1,0,0,-1,-1,3,1
15:39:14.855444,-1,-2,-3,-3,3,-2,0,-3
15:39:14.862440,-1,0,0,1,0,-1,2,2
15:39:14.878432,-2,0,-5,-3,-3,-5,0,-2
15:39:14.885429,-1,-1,-2,1,2,-2,-1,-1
15:39:14.900417,-2,-1,0,-1,-1,-3,-3,2
15:39:14.901419,-2,1,0,-1,-2,-1,-3,-1
15:39:14.930398,-5,-4,-3,-3,-3,1,-1,-5
15:39:14.931400,1,-1,1,0,-3,-1,-2,-4
15:39:14.937396,-6,4,0,0,5,1,-1,2
15:39:14.945391,-5,0,1,-3,-1,1,3,0
15:39:14.960382,1,3,0,-2,-2,0,0,0
15:39:14.968376,-3,-2,0,0,-2,0,-1,-4
15:39:14.983365,-1,1,1,1,-2,-4,2,1
15:39:14.983365,1,-1,-2,-2,-1,1,-1,-1
15:39:14.998358,-1,-1,-3,-4,-3,-1,-1,-1
15:39:15.007350,1,-1,-2,-3,1,0,-3,0
15:39:15.020345,4,0,2,2,1,0,1,-1
15:39:15.028337,-4,-1,-1,-2,-2,0,-2,-2
15:39:15.043327,-3,2,-4,-1,-3,-3,-1,-3
15:39:15.043327,-1,-1,-4,-1,-3,-2,-1,-2
15:39:15.058319,0,-2,-2,0,0,4,-1,-1
15:39:15.065317,1,0,-2,0,-3,-2,1,0
15:39:15.080307,-3,-2,-2,-2,0,-3,-3,-5
15:39:15.088303,-2,1,0,-3,2,0,1,1
15:39:15.103291,-1,-1,-1,-3,1,3,1,-3
15:39:15.103291,2,-1,1,4,3,-2,1,5
15:39:15.125277,-4,1,-2,4,0,-1,0,1
15:39:15.126278,3,0,0,0,3,2,2,5
15:39:15.140271,0,1,2,-1,-1,-3,-2,-2
15:39:15.148265,1,-2,-1,3,-1,5,7,1
15:39:15.163257,2,-1,1,0,1,-3,0,0
15:39:15.170252,-1,-1,-1,-3,-4,-2,0,-1
15:39:15.178247,1,2,-2,-3,-3,2,0,0
15:39:15.185241,3,-1,-2,1,0,1,-1,3
15:39:15.200230,-8,-2,-1,-1,-3,-6,1,-4
15:39:15.208230,-4,-1,0,-1,-1,-2,0,0
15:39:15.223216,0,-2,-1,-3,-3,0,-1,-1
15:39:15.223216,-2,2,1,-1,1,-3,-3,-2
15:39:15.238210,1,0,0,1,2,0,-2,2
15:39:15.245202,-4,-2,-3,-4,-2,0,0,0
15:39:15.260197,-7,0,-1,-3,-1,-3,-2,-4
15:39:15.268189,4,-1,-2,1,-4,-4,0,2
15:39:15.283179,0,2,0,-2,2,-3,-5,0
15:39:15.283179,1,0,1,2,-2,0,-2,2
15:39:15.298170,-3,0,2,-1,-2,0,-2,-1
15:39:15.305165,0,-2,0,0,-2,-2,-3,-1
15:39:15.320156,-2,-4,0,-1,-4,1,-4,-3
15:39:15.335147,-1,0,0,1,1,4,0,-1
15:39:15.343141,7,0,-2,-3,0,1,2,2
15:39:15.343141,1,-1,-3,0,-2,1,2,-2
15:39:15.358133,0,3,-1,1,-6,-3,-4,-1
15:39:15.365129,-1,0,9,9,2,-1,0,-1
15:39:15.380119,-1,0,-4,-11,1,0,1,3
15:39:15.388117,-1,2,2,3,-2,-3,-2,-4
15:39:15.403105,-1,-2,-7,-10,1,1,0,-1
15:39:15.403105,-4,-1,3,3,1,1,-3,2
15:39:15.425091,-3,1,-5,-5,-2,-5,0,0
15:39:15.426091,-4,0,17,20,-2,-3,-5,-2
15:39:15.440087,1,-2,-11,2,6,4,4,1
15:39:15.448079,-4,-1,3,0,0,-1,0,-3
15:39:15.463068,-1,-3,2,-2,1,-2,-2,-3
15:39:15.463068,3,-2,-11,-38,-5,-3,0,2
15:39:15.478059,-1,-1,-4,-3,-2,1,0,0
15:39:15.485053,1,-1,-19,-19,2,-2,-1,-4
15:39:15.500046,-5,-1,4,2,0,-3,0,1
15:39:15.508039,1,-5,-18,-29,-6,-2,-2,-2
15:39:15.523031,-6,-2,-35,-128,-1,6,0,-1
15:39:15.523031,-4,-1,37,55,5,-23,-5,-6
15:39:15.538024,0,-2,-12,-18,10,4,0,0
15:39:15.546019,4,10,35,50,41,9,4,3
15:39:15.561007,-1,2,0,-18,7,-6,-1,2
15:39:15.568005,-11,-12,7,29,36,1,-6,-8
15:39:15.582995,3,16,105,127,21,3,1,-1
15:39:15.582995,10,-1,-54,-128,-128,-13,4,14
15:39:15.597984,-23,-25,-15,38,-103,4,-13,-19
15:39:15.604982,9,34,127,-8,127,25,4,3
15:39:15.619971,10,-2,-36,38,-117,-19,10,19
15:39:15.627966,20,63,66,-116,127,55,4,5
15:39:15.649951,25,14,73,51,127,-5,10,19
15:39:15.650952,10,43,127,127,52,79,18,10
15:39:15.657947,-4,-42,-128,-128,-128,-41,-2,-3
15:39:15.665943,8,8,127,127,127,73,10,1
15:39:15.680933,-53,-126,-128,-128,-128,-128,-49,-25
15:39:15.687928,6,53,101,127,127,127,22,0
15:39:15.702922,-17,-46,-32,127,127,19,-10,-12
15:39:15.703921,30,-15,-128,-128,-128,-7,23,31
15:39:15.717912,20,81,116,-128,-128,-123,-1,6
15:39:15.725904,-27,-56,-32,96,-46,-34,-26,-22
15:39:15.739896,7,31,9,110,14,38,9,2
15:39:15.747894,20,65,-34,-128,-128,21,3,0
15:39:15.762884,-24,-32,31,16,66,-5,-10,-14
15:39:15.763885,5,22,-23,-115,-50,27,3,10
15:39:15.777872,-15,-28,-7,119,33,-20,-14,-30
15:39:15.792862,5,4,-2,-39,-15,12,-3,42
15:39:15.799858,-15,-39,-8,-21,29,8,17,-40
15:39:15.807854,-24,-94,-113,-128,-128,-35,54,41
15:39:15.822847,-62,-105,-33,-128,-128,-45,-27,-28
15:39:15.823855,46,113,127,127,-128,5,6,-9
15:39:15.852829,-56,-27,-60,-94,-87,-16,-10,-24
15:39:15.853826,28,66,46,-47,41,9,-3,-4
15:39:15.860820,-48,-105,-43,2,-50,-34,-16,-16
15:39:15.867816,17,-3,-11,118,27,5,-3,11
15:39:15.882807,-95,-128,-63,127,38,7,-20,-31
15:39:15.890804,35,74,38,-28,-128,23,6,9
15:39:15.904794,-72,-128,-90,46,127,103,9,4
15:39:15.905793,72,127,107,127,16,-4,8,18
15:39:15.919785,21,20,19,37,43,-23,1,5
15:39:15.927778,38,55,-11,-128,-46,3,0,8
15:39:15.942769,22,56,103,19,97,-25,-4,2
15:39:15.949768,-10,-26,-10,-63,-128,-7,-4,-8
15:39:15.964756,22,27,-4,-67,57,-21,-5,5
15:39:15.965756,-1,-5,-14,70,127,33,5,0
15:39:15.979747,6,13,-3,-100,-128,-27,-3,-5
15:39:15.987741,-60,-122,-88,26,40,-28,-18,-22
15:39:16.002732,10,28,22,-44,-85,-55,1,5
15:39:16.009730,16,14,59,127,127,35,10,10
15:39:16.024723,39,92,47,-52,-63,-37,1,2
15:39:16.025718,-1,-2,-31,-95,-128,-22,-4,-1
15:39:16.039712,-41,-31,-21,-12,-57,-35,-24,-29
15:39:16.047704,-9,-5,-28,-54,-128,-8,-2,-4
15:39:16.062695,-10,-12,-18,17,97,34,2,-2
15:39:16.069694,-7,-36,30,127,127,6,5,5
15:39:16.084681,18,46,-7,-128,-87,-4,1,8
15:39:16.085683,-30,-53,-55,-64,-97,-45,-12,-17
15:39:16.099678,-4,-14,0,78,79,-9,0,0
15:39:16.107668,-9,6,21,12,51,8,-11,-12
15:39:16.122659,-9,-1,58,127,26,46,0,-6
15:39:16.129656,-12,-32,-42,50,127,-6,3,0
15:39:16.144644,44,59,41,-11,127,12,12,18
15:39:16.152639,7,18,6,-98,10,30,2,-1
15:39:16.159638,-9,-39,6,113,127,35,5,0
15:39:16.167631,24,40,81,127,-128,-26,5,12
15:39:16.182620,-16,-27,-8,-32,86,11,-2,-7
15:39:16.189625,-36,-57,-8,127,101,65,-6,-12
15:39:16.204638,8,42,62,127,-6,41,-4,-2
15:39:16.205607,-5,-5,30,127,2,16,4,-1
15:39:16.220598,4,7,-21,-79,84,41,6,0
15:39:16.227592,7,-8,9,17,127,43,8,6
15:39:16.242583,-10,-7,-2,-28,127,-9,-4,-9
15:39:16.249582,20,16,23,127,127,127,16,11
15:39:16.272565,13,15,51,127,26,52,2,6
15:39:16.272565,-23,-12,18,127,127,90,-12,-22
15:39:16.280560,-1,-9,11,127,127,27,-2,1
15:39:16.287556,-32,-50,-35,-94,-128,-6,-10,-14
15:39:16.302546,18,16,18,21,-128,-105,4,11
15:39:16.310542,-3,1,-3,22,80,-3,-9,-4
15:39:16.324534,-2,-16,-24,-77,-19,-39,0,3
15:39:16.325532,-15,-11,8,92,-13,62,-2,-10
15:39:16.340524,-3,-15,-3,82,-5,-3,-5,-5
15:39:16.347518,32,39,68,127,127,30,12,15
15:39:16.362509,9,18,36,59,-22,1,6,4
15:39:16.370507,-5,-16,-43,-45,-128,19,5,-1
15:39:16.384497,-6,3,32,127,-22,42,-6,-8
15:39:16.385495,29,37,8,7,-1,-25,12,11
15:39:16.400485,-30,-37,-21,-50,-98,25,-10,-22
15:39:16.407480,9,3,58,127,127,99,12,11
15:39:16.422472,6,2,3,-4,-6,65,3,-1
15:39:16.430467,7,7,14,25,-13,-127,-6,4
15:39:16.445459,-19,-9,-7,-65,-128,-20,-10,-13
15:39:16.445459,-5,-3,4,127,-128,-15,-3,-4
15:39:16.460449,-16,-7,2,-76,-128,19,-7,-13
15:39:16.467445,0,-13,-3,31,-128,-26,-1,2
15:39:16.482435,6,7,32,99,77,0,-1,2
15:39:16.490430,11,25,12,-70,-128,-56,0,3
15:39:16.504423,-32,-55,-59,68,-128,7,-8,-8
15:39:16.505425,-2,15,24,109,127,16,-4,-9
15:39:16.520411,15,13,-17,-128,-128,-128,1,14
15:39:16.527406,-4,11,4,-95,-128,-19,-7,-5
15:39:16.542399,-31,-35,47,127,127,127,0,-24
15:39:16.550392,20,23,5,-128,127,-58,3,12
15:39:16.564386,16,17,3,-34,-128,95,12,5
15:39:16.565385,2,7,3,-55,34,-7,-5,-2
15:39:16.580374,2,-4,-4,127,127,-13,1,7
15:39:16.595364,15,4,18,92,48,-9,10,15
15:39:16.602370,-10,-8,-12,-107,-128,-109,-10,-7
15:39:16.610359,15,10,31,127,127,82,15,17
15:39:16.625347,-9,-10,-6,-6,127,96,4,-1
15:39:16.626349,10,13,15,-28,49,-11,1,2
15:39:16.640337,11,18,-20,-128,-128,-121,-2,3
15:39:16.647336,-12,-14,26,53,-7,78,-5,-12
15:39:16.663323,0,-9,-16,-53,113,21,0,3
15:39:16.678314,-6,-21,5,127,127,86,2,1
15:39:16.685309,-5,-7,-21,-93,-128,-48,-4,-4
15:39:16.686309,22,31,3,48,127,-101,6,9
15:39:16.700301,0,-3,-3,3,-67,-2,-5,0
15:39:16.707298,-1,-3,-11,70,127,-31,-4,1
15:39:16.723287,30,38,40,39,127,23,8,17
15:39:16.730281,-10,-3,-18,-109,-128,-13,-4,-9
15:39:16.745275,9,9,44,127,127,127,7,4
15:39:16.746275,7,6,-21,-29,-89,-48,3,3
15:39:16.760266,6,1,-1,-47,6,-9,1,2
15:39:16.768258,8,0,19,107,127,29,6,5
15:39:16.783251,-1,-1,-8,-29,-78,-8,-1,0
15:39:16.790247,3,2,-3,-20,-34,-5,-1,3
15:39:16.805239,0,5,41,127,127,59,4,-1
15:39:16.813233,-3,0,-6,-20,-9,-7,0,2
15:39:16.828221,2,0,-4,-7,-3,4,-10,1
15:39:16.828221,0,-3,-1,-1,0,4,7,-4
15:39:16.843217,-15,-10,-2,-1,3,5,-2,3
15:39:16.850210,1,0,6,2,-4,-23,3,-15
15:39:16.865200,71,17,12,12,26,66,77,55
15:39:16.873195,-38,-20,-30,-34,-54,-107,-43,-84
15:39:16.895182,-96,0,5,2,-2,-29,-87,-92
15:39:16.896181,36,2,10,15,26,71,127,2
15:39:16.903177,101,35,10,2,6,-61,-128,127
15:39:16.910173,-80,18,-4,-5,-38,-82,48,-128
15:39:16.925161,127,-19,-26,-22,-21,67,127,31
15:39:16.933157,-17,20,11,6,6,7,127,-92
15:39:16.948147,-59,5,0,3,-23,-79,-59,-88
15:39:16.948147,47,30,-8,-21,-30,-1,127,-43
15:39:16.963138,-91,-58,-16,-9,10,-17,-56,-43
15:39:16.970133,7,-10,-15,-18,-38,-42,-33,-9
15:39:16.986126,38,15,-44,-128,8,9,5,38
15:39:16.993121,-49,-28,-23,-38,127,-28,-37,-31
15:39:17.008109,-1,-8,3,127,-128,4,-24,10
15:39:17.008109,-53,-64,-3,127,116,4,-19,-63
15:39:17.023103,127,-65,-46,-128,-17,127,29,127
15:39:17.030098,-39,40,-11,127,31,46,28,0
15:39:17.046089,-50,16,61,50,-128,-67,-4,-23
15:39:17.053085,33,-58,5,31,127,12,-112,69
15:39:17.068072,36,30,25,-2,-28,48,69,19
15:39:17.068072,3,-19,1,-12,11,-16,21,-16
15:39:17.083066,21,-20,0,-7,27,51,-34,25
15:39:17.090060,2,6,-5,22,-71,-15,3,14
15:39:17.105052,0,-8,-5,44,14,-54,-128,39
15:39:17.113047,-1,4,18,23,127,43,11,-3
15:39:17.128035,-7,-5,-5,-128,-128,-16,20,-3
15:39:17.128035,8,-1,-54,-24,6,2,11,-8
15:39:17.143028,-15,-6,6,-128,-128,-15,-4,-39
15:39:17.150023,58,13,29,54,35,2,-25,80
15:39:17.166013,-63,22,9,-83,-64,-2,6,15
15:39:17.173007,5,17,-7,17,127,6,2,-2
15:39:17.187998,-23,1,-45,73,-46,-19,-4,-16
15:39:17.187998,-39,-21,-5,21,-30,-27,-22,-36
15:39:17.202988,-18,-12,20,18,-128,-21,-8,7
15:39:17.209987,-38,-1,-15,-21,-94,25,5,-2
15:39:17.225974,-14,8,16,78,47,-1,-22,-4
15:39:17.232970,-10,-1,-1,33,127,13,10,7
15:39:17.247961,3,2,-9,-107,-38,-14,-3,-3
15:39:17.247961,12,-7,-20,59,-116,-16,1,11
15:39:17.262954,3,-1,-30,-43,-54,9,10,3
15:39:17.269953,-30,-19,-2,-46,-75,-21,-17,-28
15:39:17.284939,-45,-6,3,-1,53,-18,-4,-32
15:39:17.292935,7,11,-4,2,30,2,-25,-5
15:39:17.307924,-5,0,6,4,-128,7,6,-7
15:39:17.308923,-12,-7,-13,10,-17,-10,-11,-21
15:39:17.322914,-3,0,2,56,13,-21,-12,-8
15:39:17.330912,-5,0,11,47,41,5,8,12
15:39:17.345900,-8,-5,21,49,31,3,1,-3
15:39:17.356892,-3,0,3,-75,65,-8,-11,-7
15:39:17.370884,-3,-2,-6,-49,-104,-1,5,4
15:39:17.371884,11,-2,13,26,-11,0,-11,10
15:39:17.382879,25,-8,-7,-77,64,37,26,26
15:39:17.389871,0,1,22,-44,10,-1,0,-2
15:39:17.404865,12,3,1,-9,-58,2,14,3
15:39:17.412858,0,3,16,68,-32,6,3,0
15:39:17.427849,-9,5,-6,-29,-17,8,3,2
15:39:17.427849,-29,-6,3,9,-16,-21,-16,-23
15:39:17.442839,4,-5,-9,12,33,4,-5,-5
15:39:17.449834,-9,0,6,15,19,-3,-19,-13
15:39:17.464827,-3,-6,-1,-17,-51,-3,2,-5
15:39:17.472820,2,0,3,47,43,3,-2,0
15:39:17.487811,0,-5,-10,-128,-79,1,-7,-4
15:39:17.487811,0,-4,1,51,4,-17,-3,1
15:39:17.502803,5,4,4,-119,-128,-6,2,3
15:39:17.509802,22,-2,-7,6,38,8,-3,-2
15:39:17.524802,-3,2,6,15,-3,2,12,3
15:39:17.532783,-2,-1,-1,5,-7,-4,1,-2
15:39:17.547774,-10,-2,-2,-6,1,5,3,-2
15:39:17.547774,-7,-3,-2,-10,-17,-7,-5,-5
15:39:17.562764,0,1,-2,-31,-17,4,4,3
15:39:17.569764,0,1,-2,-18,-54,-5,1,1
15:39:17.584754,-4,-6,-6,-4,-2,-12,-6,-7
15:39:17.592746,1,4,-3,-54,-4,1,17,2
15:39:17.607737,-11,-5,1,19,12,0,-1,-4
15:39:17.614735,2,0,2,-7,-64,-8,0,5
15:39:17.629723,-2,-2,-4,2,18,1,-2,-9
15:39:17.630724,1,0,-1,0,-1,1,-2,3
15:39:17.645723,5,0,-2,9,15,1,-1,0
15:39:17.652708,1,1,2,26,-28,-6,1,-2
15:39:17.667699,-2,0,0,31,13,-3,0,-1
15:39:17.674696,1,1,2,21,37,6,4,3
15:39:17.682690,1,1,2,10,9,-2,-1,-2
15:39:17.690686,-1,-1,-4,-89,-54,0,-3,0
15:39:17.705677,-5,0,-3,18,5,-7,0,-3
15:39:17.712672,-1,1,0,6,-3,-1,-3,-3
15:39:17.727664,0,-1,-2,-4,14,0,2,0
15:39:17.742656,2,-1,-1,-19,-50,-2,-2,-2
15:39:17.750649,-1,-3,1,-3,-20,-2,1,-1
15:39:17.750649,3,0,2,5,-34,-5,2,1
15:39:17.765642,-7,-7,-1,1,11,0,-4,-5
15:39:17.772638,1,1,0,-3,-3,1,-2,-2
15:39:17.787627,0,-3,1,0,-1,-2,1,0
15:39:17.795623,-1,-2,-1,2,0,0,-1,3
15:39:17.810614,-4,-4,-1,-2,1,1,-2,-5
15:39:17.810614,-6,-3,1,20,-5,5,-1,-4
15:39:17.825602,3,-4,-2,18,43,5,1,3
15:39:17.832601,-3,0,3,-8,13,-3,-1,-5
15:39:17.847591,1,1,2,3,20,-1,0,1
15:39:17.855586,3,2,0,5,10,-2,-3,-1
15:39:17.870576,2,-3,1,-4,-1,0,1,-4
15:39:17.870576,-1,2,-1,-2,-4,-1,1,0
15:39:17.885568,1,-1,0,-1,-3,-4,-4,0
15:39:17.900558,2,-2,-1,-2,-1,0,-2,-4
15:39:17.907553,-3,-1,-3,-1,-7,-2,-3,-4
15:39:17.915549,1,-1,1,3,35,8,0,0
15:39:17.930537,0,3,-3,-14,17,-2,3,1
15:39:17.930537,1,0,1,-20,37,-3,-1,-1
15:39:17.945531,0,0,-3,3,0,2,0,-3
15:39:17.952525,3,-1,0,0,-6,0,1,-1
15:39:17.967515,1,0,-1,1,-4,-1,3,1
15:39:17.982505,-1,-2,-3,-3,-5,-2,-2,-1
15:39:17.997496,-2,-1,-4,0,0,-2,1,-2
15:39:17.998495,-4,-1,-1,-2,-3,1,-4,-2
15:39:18.005491,1,-3,2,1,5,-1,-3,-1
15:39:18.012487,-1,1,0,-1,4,2,-2,0
15:39:18.027480,0,-3,-4,-2,-1,2,-4,-3
15:39:18.035472,0,0,1,1,-3,0,-1,-1
15:39:18.050465,2,1,2,-4,4,3,3,4
15:39:18.050465,-1,-1,3,3,-10,-7,0,-1
15:39:18.065456,-4,0,-2,0,4,1,1,-2
15:39:18.072451,0,-3,-2,-1,-1,5,1,-2
15:39:18.095437,-1,-4,-3,-2,-2,4,-1,1
15:39:18.096437,-1,-1,0,-2,1,-2,1,2
15:39:18.110426,0,-1,-3,-4,-4,-2,1,2
15:39:18.111425,-4,-4,1,-1,-2,-2,-1,-3
15:39:18.125416,0,-3,-2,9,4,2,2,0
15:39:18.132411,-3,-1,-3,-14,-4,1,-2,-2
15:39:18.148405,-3,0,-1,2,9,8,1,-6
15:39:18.155397,1,4,-1,-25,-5,-7,0,-1
15:39:18.170388,-3,0,-2,2,-1,-3,1,-2
15:39:18.177387,-2,-2,-1,-3,0,-1,-4,-1
15:39:18.185379,4,3,1,5,6,6,4,3
15:39:18.193376,-2,-4,-3,-2,-3,2,-1,-6
15:39:18.208365,1,3,1,3,6,-1,2,4
15:39:18.215361,-3,-1,-1,-3,-1,-3,-1,-3
15:39:18.230351,-1,-1,-1,-3,-5,-5,-3,-3
15:39:18.231352,0,-3,-4,-1,-2,1,-2,0
15:39:18.245342,-1,-4,1,4,-1,-2,-4,-1
15:39:18.253339,0,-2,0,-4,-2,1,-3,-2
15:39:18.275324,0,1,-2,-2,-3,-2,-2,0
15:39:18.276325,-1,-3,-2,-2,1,-3,-3,-2
15:39:18.290314,2,2,-1,1,3,0,0,2
15:39:18.291318,-4,-1,-1,-1,-1,-4,1,-5
15:39:18.305308,0,1,2,26,3,5,-2,3
15:39:18.313303,-5,-1,-4,5,3,-4,-3,-3
15:39:18.328293,1,0,-1,2,6,-1,-1,0
15:39:18.335289,0,-4,-2,-4,-4,-1,-2,-1
15:39:18.350279,0,-3,0,-2,-2,-2,-1,-4
15:39:18.351277,-1,-2,1,-4,-3,1,1,-1
15:39:18.365270,0,-1,2,6,2,0,0,-2
15:39:18.373266,1,-1,-3,-3,0,-4,-1,0
15:39:18.388256,5,6,4,3,2,-2,2,3
15:39:18.395251,0,-2,1,0,2,-6,-2,-2
15:39:18.410243,-3,-1,-3,-3,-1,0,1,0
15:39:18.411241,0,-5,0,-5,0,0,-3,-1
15:39:18.425231,2,-1,-3,1,0,-2,2,1
15:39:18.433225,-1,2,2,0,0,-4,0,-1
15:39:18.448219,-1,-3,-5,0,0,2,0,-4
15:39:18.455214,1,1,1,-1,0,-1,-1,-1
15:39:18.470205,4,4,3,10,15,4,2,6
15:39:18.471202,-3,-2,0,-3,-1,-3,-4,-3
15:39:18.485193,-3,-2,0,-1,-2,1,-3,1
15:39:18.493191,-1,1,-2,-1,0,0,-3,-3
15:39:18.508179,-5,-4,-5,-6,-5,1,-2,-3
15:39:18.516177,1,0,-1,2,2,2,2,-1
15:39:18.530167,-1,-1,-2,-1,-2,1,0,1
15:39:18.538163,0,-1,-3,-1,-5,-2,-2,-3
15:39:18.546158,6,5,3,10,17,10,3,7
15:39:18.553154,-3,-2,-3,-2,-2,-3,-2,1
15:39:18.568145,-1,-3,-2,-3,-3,-2,-3,-5
15:39:18.575138,1,1,-1,-3,-2,-1,-1,-3
15:39:18.590130,-5,0,-3,-2,-3,1,1,-1
15:39:18.591128,-3,-3,-1,-3,-4,0,-2,-3
15:39:18.605121,-3,0,-5,-2,1,-2,1,-3
15:39:18.620112,-3,-2,-5,-3,-2,-3,-1,-1
15:39:18.628108,1,1,1,-1,2,-5,-3,-2
15:39:18.636102,-3,0,-3,0,-4,-3,-1,-2
15:39:18.650094,2,-1,-1,0,-1,3,-1,0
15:39:18.651093,-3,2,-1,-2,-5,-1,-3,-3
15:39:18.665084,0,-4,-2,-2,-2,1,0,2
15:39:18.673077,-3,0,-1,1,0,-1,-2,-2
15:39:18.695063,-1,-2,1,3,4,4,0,0
15:39:18.696066,3,2,3,3,4,3,3,0
15:39:18.710056,-1,-3,0,-2,-6,0,-1,-4
15:39:18.718052,1,-2,-3,3,2,-1,-3,-3
15:39:18.733042,-2,1,2,2,2,0,-1,-2
15:39:18.733042,3,1,4,3,0,-2,0,2
15:39:18.748033,0,1,2,-1,-3,-1,2,0
15:39:18.755027,1,-1,-1,0,-2,1,-1,-2
15:39:18.770019,2,4,2,1,3,2,1,0
15:39:18.778014,-1,-4,-3,-2,-5,0,-1,-3
15:39:18.793005,-1,-1,2,2,4,0,-2,2
15:39:18.799998,-2,-1,0,-2,-5,-2,-5,-3
15:39:18.814991,-1,-1,0,4,1,0,1,-1
15:39:18.815988,-2,0,-5,-6,-6,2,-4,0
15:39:18.829981,-2,1,-1,-4,-1,-4,-1,-1
15:39:18.839973,1,1,1,0,8,12,4,2
15:39:18.852965,2,1,0,0,1,-3,0,2
15:39:18.853965,-2,-1,-1,-1,0,-2,-1,-3
15:39:18.866973,-3,0,1,-1,-1,0,-3,0
15:39:18.874952,-2,0,-2,2,5,4,0,1
15:39:18.897938,1,1,-2,-3,-5,0,-1,-1
15:39:18.897938,-5,-5,-1,-1,0,3,1,-3
15:39:18.912928,-4,1,1,-1,-3,-4,-3,2
15:39:18.912928,-3,-1,-3,-2,-3,-4,-3,-3
15:39:18.927919,-1,2,-3,-2,0,0,-1,-2
15:39:18.934922,-3,-1,1,-2,-2,-1,-1,-2
15:39:18.949904,0,0,2,-1,-1,-3,-2,-1
15:39:18.956902,-1,-1,-2,2,1,-1,0,1
15:39:18.971891,1,-1,1,0,-2,-4,-3,-1
15:39:18.972891,1,0,0,-2,-1,-1,0,-1
15:39:18.987881,0,1,3,2,3,8,2,2
15:39:18.998874,0,-1,-2,2,4,6,0,-4
15:39:19.010870,-2,-1,0,0,-2,-2,0,-5
15:39:19.017863,-5,1,0,-2,1,-2,-3,-2
15:39:19.032853,-4,1,0,-3,1,-4,-1,2
15:39:19.033853,-1,-2,-2,-1,0,-1,-1,1
15:39:19.047844,3,3,3,1,1,0,-1,0
15:39:19.055839,-4,-3,0,1,-3,-1,-1,-1
15:39:19.069830,-2,-3,-3,-3,-2,0,1,1
15:39:19.077825,0,-1,-1,1,-5,1,-4,0
15:39:19.092816,1,-1,-1,0,1,1,-1,-2
15:39:19.092816,-4,-4,-4,-1,-4,-4,-1,-5
15:39:19.107807,-2,-2,0,0,-1,0,-1,3
15:39:19.114805,0,-1,1,-1,2,3,-1,-1
15:39:19.129885,0,-2,0,-1,-2,-2,0,-1
15:39:19.137789,-3,-1,-2,-1,-2,2,1,-1
15:39:19.152795,-2,0,-2,-1,-3,-1,-3,-2
15:39:19.159777,1,2,0,-1,-5,-1,1,-2
15:39:19.167794,-1,-1,-1,0,-5,-3,-4,-2
15:39:19.175776,0,-3,-1,2,4,-1,0,0
15:39:19.189765,-1,-1,1,0,-2,-2,-2,-3
15:39:19.197752,0,0,-1,-5,-4,0,-4,-3
15:39:19.212742,0,2,1,3,2,-1,0,0
15:39:19.212742,0,-1,-5,-1,-1,2,3,-2
15:39:19.227733,6,4,3,3,6,7,5,7
15:39:19.234731,-1,0,-1,0,0,-1,-4,-1
15:39:19.249721,4,2,-2,-1,2,3,1,0
15:39:19.257714,-2,-1,-1,1,0,-3,-1,-1
15:39:19.272705,-2,0,0,-4,0,-3,-1,-1
15:39:19.272705,-2,-2,-2,-4,-3,2,-2,-3
15:39:19.287696,-1,-1,-2,4,4,2,0,0
15:39:19.295702,-2,-1,-3,0,-9,-3,-4,-1
15:39:19.310685,0,-3,-3,2,0,-2,-2,-3
15:39:19.317677,-3,-3,-5,-3,-6,-1,-3,-2
15:39:19.332668,-4,-1,0,1,-2,1,-1,0
15:39:19.332668,-1,-2,0,2,-2,-4,-2,-1
15:39:19.347658,-5,-4,-2,-5,-9,-5,-5,-3
15:39:19.354656,2,-1,-6,2,6,0,-2,2
15:39:19.369647,-2,-3,0,-2,-1,0,-3,-1
15:39:19.377640,-4,-3,-4,-3,-4,0,-1,-1
15:39:19.392631,-1,-1,0,-1,-3,-2,-1,0
15:39:19.392631,-2,1,-2,-1,-1,1,0,1
15:39:19.407621,-5,-3,-4,-2,-4,-1,-2,-1
15:39:19.422612,-1,2,1,2,-1,-2,1,-2
15:39:19.429609,0,1,1,1,-2,-6,4,2
15:39:19.437603,0,-3,-3,-1,-1,-4,-3,-2
15:39:19.452593,-1,-1,0,-2,-3,-3,-2,-1
15:39:19.452593,0,-2,0,0,-5,-4,-2,-4
15:39:19.467584,3,-2,-1,0,-1,2,-2,0
15:39:19.475580,-1,0,0,-4,2,1,0,-1
15:39:19.489590,1,1,1,-1,-5,-5,-2,0
15:39:19.497565,1,2,2,3,1,-2,1,0
15:39:19.512556,-2,-2,-5,-3,0,-2,-2,1
15:39:19.512556,0,2,-1,-2,1,-2,0,-3
15:39:19.527555,-2,-4,-1,-1,-1,-2,-1,-3
15:39:19.535541,0,0,-1,4,3,4,4,3
15:39:19.549537,-2,-2,2,-2,-3,-2,2,-1
15:39:19.557527,-1,0,0,-3,1,-1,-3,1
15:39:19.572519,-4,2,0,-1,-3,-5,0,1
15:39:19.572519,-1,0,-2,-4,-6,1,0,-5
15:39:19.587509,0,2,3,3,6,10,2,2
15:39:19.595505,0,3,-2,-2,-6,-3,-2,-2
15:39:19.610497,-2,-1,-1,1,1,4,0,1
15:39:19.617490,2,-2,0,-3,-5,-2,0,-2
15:39:19.632482,-2,0,-1,-3,-2,0,-1,-5
15:39:19.633485,-5,-2,2,-4,1,-1,-2,-2
15:39:19.654501,-2,0,-1,-4,0,1,-2,0
15:39:19.655469,-2,-2,-1,-3,0,0,-1,-1
15:39:19.670457,-3,-2,-1,-3,-1,-3,-1,-4
15:39:19.677454,-3,-1,-2,-3,-2,-3,-2,4
15:39:19.692444,0,-1,-1,2,0,-4,0,1
15:39:19.699461,-4,2,-2,-4,-2,-2,-2,0
15:39:19.715430,1,2,1,2,-1,0,-2,-3
15:39:19.715430,0,-2,-1,-3,-2,-2,-1,0
15:39:19.730421,1,-2,1,3,1,-2,0,-2
15:39:19.737416,1,4,2,3,0,2,3,2
15:39:19.752407,-1,0,-3,0,-2,1,-3,-3
15:39:19.760403,-2,-1,-2,0,-5,0,0,0
15:39:19.775393,-2,-5,-2,-3,-9,-4,-4,-7
15:39:19.775393,-5,-2,0,-1,-2,-3,-3,-1
15:39:19.790393,0,0,-2,-4,-5,-3,-3,-3
15:39:19.797379,-4,1,-1,-3,-5,-2,-4,-6
15:39:19.812370,-2,-1,-1,-4,1,-4,-1,2
15:39:19.820365,2,1,2,4,2,2,0,3
15:39:19.842352,-2,1,1,-2,3,-1,-3,1
15:39:19.843351,-4,-4,-3,-6,-7,-1,-4,-3
15:39:19.850348,0,-1,0,-3,2,0,0,0
15:39:19.857357,-3,-1,1,-4,-3,-4,-2,2
15:39:19.872361,1,0,1,0,0,0,-2,-2
15:39:19.880328,1,-1,2,3,4,3,1,2
15:39:19.895319,-1,-2,-1,1,-1,1,-3,0
15:39:19.895319,0,-3,-3,-4,-1,0,3,-4
15:39:19.910310,-2,-2,-5,0,-2,0,-2,3
15:39:19.917381,-2,0,1,0,-1,0,0,0
15:39:19.932369,-1,-1,-2,-2,-4,-2,-1,-2
15:39:19.947289,-1,-1,-2,-2,-1,0,0,-1
15:39:19.955280,-1,-3,-2,-2,-3,-2,-3,-3
15:39:19.962338,-2,-1,-1,-3,0,-1,2,-3
15:39:19.970272,0,-3,-3,0,-4,0,2,-1
15:39:19.977271,0,0,0,1,-1,0,1,-1
15:39:19.992261,-1,-2,0,1,5,0,-1,1
15:39:20.000254,-3,-3,-3,-1,0,-1,-1,-1
15:39:20.015245,0,2,-2,-2,-2,0,-3,0
15:39:20.015245,1,-5,-3,-2,-3,1,-1,2
15:39:20.030235,0,-2,-1,-2,2,-3,-5,0
15:39:20.037235,0,-2,-2,-1,-4,-4,0,-1
15:39:20.052223,2,0,1,3,2,5,-1,1
15:39:20.060216,-4,-2,-1,0,-5,-4,3,-2
15:39:20.075208,1,-2,-2,-1,-1,1,-4,-1
15:39:20.075208,0,3,0,-1,-3,1,-2,1
15:39:20.090198,-2,-2,-1,-1,1,-4,-1,0
15:39:20.097208,0,0,3,3,-2,-1,-1,1
15:39:20.112186,0,0,2,10,6,3,0,3
15:39:20.120179,1,-1,-5,-32,-5,-1,-2,1
15:39:20.135170,-2,-2,0,3,2,1,-1,-4
15:39:20.135170,-1,1,1,0,-2,1,0,-4
15:39:20.150161,-2,-1,1,-2,-3,-2,2,6
15:39:20.158157,-3,2,2,5,3,2,3,-6
15:39:20.172149,-2,-1,-1,-1,-2,-1,-4,-3
15:39:20.180141,0,-4,1,0,3,0,4,-1
15:39:20.202131,-5,-4,-1,-3,-3,-8,-1,-5
15:39:20.203142,-1,-5,-3,-2,-4,-2,0,-4
15:39:20.210126,-4,-1,0,-1,-4,-1,-1,-1
15:39:20.218121,1,1,-1,2,0,1,-3,1
15:39:20.233112,0,1,-2,2,-1,-2,-2,0
15:39:20.240105,4,2,2,2,4,4,-1,3
15:39:20.255096,-3,-2,-1,0,-4,-4,-3,-5
15:39:20.255096,-2,0,1,-1,-3,-1,-2,-3
15:39:20.270086,-2,-1,-2,1,-1,0,1,0
15:39:20.277084,-3,-2,2,-2,0,0,-2,-1
15:39:20.293071,0,1,0,0,-1,-1,2,-2
15:39:20.300068,0,0,-1,-4,-1,2,-1,2
15:39:20.315059,-2,1,0,1,3,-1,0,-1
15:39:20.315059,1,-2,1,-3,-2,1,0,0
15:39:20.337045,-3,-3,-3,-5,-3,-4,-1,0
15:39:20.338044,1,-1,0,1,2,-4,-1,-2
15:39:20.352034,-1,-3,-2,0,0,0,-2,-2
15:39:20.360030,2,1,2,1,1,-3,2,4
15:39:20.375021,2,1,1,1,-1,2,1,-3
15:39:20.376020,0,-4,-4,-3,-4,0,-2,-4
15:39:20.397007,-1,0,2,0,-3,0,0,-3
15:39:20.398007,-5,-4,-3,-3,-1,2,-1,-4
15:39:20.412998,1,-1,0,0,2,0,-3,-4
15:39:20.419992,-2,2,-2,-2,-5,0,-1,-2
15:39:20.434983,-2,-3,-2,-4,-3,1,-5,-2
15:39:20.434983,-2,-2,0,0,0,1,2,1
15:39:20.456971,-2,-2,-2,0,-2,-3,-5,-2
15:39:20.457970,-2,-3,0,-2,-1,1,-1,-1
15:39:20.472960,2,-1,2,-3,1,0,0,0
15:39:20.479955,-2,-2,1,2,2,-2,-3,-2
15:39:20.494946,-4,-1,-4,-3,-2,-2,0,1
15:39:20.495945,0,2,1,1,1,1,-2,1
15:39:20.516932,1,0,-1,-1,-4,-1,1,-1
15:39:20.517933,-1,-1,0,-1,-2,-3,-2,-2
15:39:20.532922,0,-1,0,-4,-1,-6,1,2
15:39:20.539918,0,0,-1,-2,-2,-4,-1,-5
15:39:20.562904,-1,-5,-4,-1,2,-1,-3,-1
15:39:20.562904,-2,0,1,-4,-5,-4,2,0
15:39:20.577896,3,5,-1,3,6,0,1,1
15:39:20.577896,-2,-2,0,-4,-1,1,1,-1
15:39:20.592886,-5,2,-2,0,-2,-2,-2,-2
15:39:20.599881,-3,-1,-1,-3,-2,2,-1,-4
15:39:20.615872,-3,-1,-3,0,-1,0,0,-1
15:39:20.622867,1,-3,0,0,1,3,0,-1
15:39:20.637857,0,0,-1,-3,1,-1,-1,-1
15:39:20.644854,-4,-3,1,-1,-4,1,-4,-4
15:39:20.652848,-1,-1,-2,-3,3,2,1,2
15:39:20.660843,2,2,0,0,-3,2,0,-1
15:39:20.674835,0,-1,0,0,-4,-1,3,-4
15:39:20.682829,-3,-2,-1,0,0,-2,-4,-4
15:39:20.697821,-2,0,-2,-2,-1,-6,0,-2
15:39:20.697821,-2,-2,-1,0,-1,2,-4,0
15:39:20.712811,-3,-1,-4,-4,-3,1,1,1
15:39:20.719807,-3,0,-1,-4,-1,-3,-1,1
15:39:20.735797,0,-4,-1,1,-5,0,0,-4
15:39:20.742793,1,0,1,0,1,0,-2,-2
15:39:20.759782,0,-3,-1,1,-1,0,-1,-2
15:39:20.760782,-3,-6,-2,-4,-1,-1,-1,0
15:39:20.779770,-3,2,-1,-1,0,-2,-3,-2
15:39:20.787765,-3,-3,-4,-1,-3,-1,-2,-1
15:39:20.794761,0,-4,-3,-3,-6,-3,-5,-3
15:39:20.802755,-2,0,0,-2,1,-3,-3,0
15:39:20.817748,0,-3,-5,-4,-4,-4,0,-1
15:39:20.817748,-2,-3,0,-4,0,0,-6,-3
15:39:20.832736,-1,0,2,0,-2,-4,1,-1
15:39:20.839733,0,2,1,-4,3,0,1,0
15:39:20.854723,-1,-2,1,-1,1,0,-1,-1
15:39:20.862718,-1,-3,0,-2,-2,-2,-2,-1
15:39:20.877709,-1,-1,-2,-3,-3,-1,-3,-3
15:39:20.877709,-1,1,-1,-3,2,0,2,2
15:39:20.892699,-3,0,-3,-4,-3,-4,-3,0
15:39:20.899695,-3,-3,-2,-2,-6,-2,-4,2
15:39:20.914686,3,2,1,3,0,-2,-1,-1
15:39:20.922681,-1,-2,-4,0,3,1,2,0
15:39:20.937673,-1,-2,-4,-1,0,-3,-1,0
15:39:20.937673,-3,-1,-4,-1,-5,-4,2,-1
15:39:20.952663,1,0,3,1,7,0,1,2
15:39:20.959658,-2,0,-1,-5,-3,0,-6,-1
15:39:20.975648,1,1,-3,0,0,0,-2,-2
15:39:20.982643,-4,-2,-2,-1,-2,-3,-1,-3
15:39:20.997634,-3,-2,-2,-1,0,-1,-1,0
15:39:20.997634,0,0,-3,-1,-1,-1,-1,0
15:39:21.012624,-1,-1,-3,-2,-2,-1,0,-4
15:39:21.019620,-2,-1,-3,-3,-1,-5,-3,-3
15:39:21.034611,-1,-2,0,-3,-1,4,0,-3
15:39:21.042606,-3,-1,-4,-3,-6,-2,0,-1
15:39:21.057599,-3,-4,-4,-2,-6,-1,-4,-4
15:39:21.058597,-4,-1,-1,-2,0,0,2,-2
15:39:21.072588,-3,0,-1,1,0,-4,-3,-3
15:39:21.079584,-1,-3,-4,-1,-3,-2,-2,-5
15:39:21.095577,2,-1,2,3,4,-2,1,0
15:39:21.102570,-3,0,-1,-1,1,2,-1,0
15:39:21.117561,-2,0,1,-2,-5,-1,-1,-2
15:39:21.117561,-1,1,1,-4,-1,-1,-2,-1
15:39:21.132550,0,1,0,-3,-1,-1,-1,-2
15:39:21.139547,2,2,-1,4,6,5,2,0
15:39:21.154537,1,-1,0,1,2,1,-1,1
15:39:21.162532,0,1,2,1,0,-1,2,1
15:39:21.177522,-1,-2,0,-4,-4,0,-2,-1
15:39:21.177522,1,-2,-2,0,-2,0,0,-2
15:39:21.192514,-2,-4,-2,0,-2,-4,-2,-1
15:39:21.207504,-6,0,-3,-3,-2,0,1,1
15:39:21.215500,-2,-3,-3,-3,-1,-2,-1,0
15:39:21.222494,-4,-2,-1,-1,-2,-4,-3,-5
15:39:21.237485,-4,-2,-4,-2,1,2,0,2
15:39:21.237485,0,0,1,-1,-3,-7,0,0
15:39:21.252477,-1,0,-1,-2,-2,-1,1,1
15:39:21.259471,-3,0,0,-1,1,-2,0,-1
15:39:21.275462,-1,0,-1,0,4,-2,0,-1
15:39:21.282457,2,-4,0,-2,0,-3,-4,-1
15:39:21.297448,1,2,3,3,1,-3,1,-1
15:39:21.298448,-3,-3,-4,-5,-3,-2,-7,-2
15:39:21.312439,-1,-2,-1,-2,-6,-1,-1,-3
15:39:21.320434,-1,-3,0,-2,1,-2,-5,1
15:39:21.335425,-4,0,1,1,0,1,1,-1
15:39:21.342421,-2,0,-2,2,0,0,-2,-2
15:39:21.357411,-1,-3,-1,-1,-5,2,0,1
15:39:21.358411,-1,1,-1,-3,-1,2,0,-1
15:39:21.372402,0,1,2,-2,-2,-1,2,-2
15:39:21.380397,3,-1,0,1,-1,-1,2,0
15:39:21.395389,1,2,-2,1,5,8,3,2
15:39:21.402384,-1,-1,-1,-2,-4,-2,-1,-3
15:39:21.417374,-4,-1,-1,-1,-5,-4,-2,-3
15:39:21.418373,5,4,3,1,2,3,2,6
15:39:21.432365,-3,1,-2,0,-2,-2,-3,2
15:39:21.439361,-3,-3,0,-2,1,0,-2,0
15:39:21.459349,-1,-3,-2,-2,-2,0,1,-1
15:39:21.462348,-1,-1,-3,-2,-2,-2,0,-1
15:39:21.477337,-3,1,1,-2,-2,-2,0,0
15:39:21.478336,2,1,2,1,2,-1,1,2
15:39:21.492327,1,0,-1,-3,1,-2,0,1
15:39:21.500322,-2,2,-1,1,-3,1,0,-3
15:39:21.522309,0,1,-1,1,0,2,0,1
15:39:21.523310,-2,-3,2,0,-1,-1,-3,-3
15:39:21.537300,-3,-2,-1,-2,-5,-1,-2,2
15:39:21.538299,0,0,-2,0,-1,-3,-1,1
15:39:21.560285,2,2,-1,-1,-4,0,0,0
15:39:21.560285,0,-2,-3,0,1,-2,-1,2
15:39:21.575277,-2,-6,-4,0,-2,1,0,-4
15:39:21.582272,-4,-2,-1,-2,0,-4,-1,-1
15:39:21.598262,0,0,-3,2,1,-4,-1,-1
15:39:21.605257,0,-3,-1,1,-2,-2,-1,2
15:39:21.629244,4,1,0,5,6,4,1,0
15:39:21.629244,-2,-2,-4,0,5,2,-1,-2
15:39:21.639237,0,-2,0,0,-3,-5,-1,0
15:39:21.643235,-1,-1,-1,-1,1,2,0,-2
15:39:21.666220,-1,1,-3,0,0,-3,-1,0
15:39:21.672216,0,-1,1,2,0,-3,0,2
15:39:21.680212,2,-2,2,0,-1,0,-1,1
15:39:21.680212,-1,-2,2,2,1,-3,0,-1
15:39:21.699200,1,1,2,-2,-4,-3,0,0
15:39:21.702198,-2,-3,-2,1,1,2,-1,4
15:39:21.717188,3,2,0,-2,1,-1,0,0
15:39:21.733179,-3,2,0,-3,-1,-3,-2,2
15:39:21.739174,-1,0,-3,-3,-1,1,-2,-2
15:39:21.740174,-3,-1,-2,-2,-5,-3,-1,-6
15:39:21.756164,-2,-1,-2,0,5,0,0,1
15:39:21.763160,-2,-1,-2,2,4,-4,0,1
15:39:21.785146,1,0,-1,-16,-6,0,0,-2
15:39:21.785146,1,2,2,6,8,4,-1,4
15:39:21.800137,3,1,-2,-39,-7,-8,-2,-2
15:39:21.800137,-4,-2,-3,13,17,1,-4,-4
15:39:21.815127,0,2,-1,-1,3,4,-1,0
15:39:21.822123,-3,-2,1,-1,-9,-4,-2,-3
15:39:21.837116,2,-3,-2,-1,-3,-3,2,-3
15:39:21.845109,1,-1,1,-1,-3,0,-1,2
15:39:21.860109,1,-1,-4,-4,-3,2,3,1
15:39:21.860109,-2,-2,-1,0,-6,-1,-1,-3
15:39:21.875091,3,1,2,7,6,1,3,2
15:39:21.882089,0,0,-4,-1,-1,0,-1,-1
15:39:21.898092,-1,-2,0,2,-3,-2,-4,1
15:39:21.905072,1,-1,-1,-2,1,-1,2,-1
15:39:21.920063,0,-2,0,-1,-4,-5,-1,0
15:39:21.920063,1,0,0,-3,-1,0,1,-1
15:39:21.935053,-2,-2,-1,1,-2,-3,-2,-2
15:39:21.943056,-1,-2,-1,-3,0,-4,-3,1
15:39:21.958040,0,-1,1,-2,0,-4,-3,-4
15:39:21.965041,2,-5,-1,1,-2,-1,1,3
15:39:21.980026,2,1,2,1,1,-3,-2,-3
15:39:21.980026,-2,-1,-2,-4,-5,-1,-3,0
15:39:21.995016,3,0,1,2,-6,-3,-2,-5
15:39:22.003012,0,1,1,-2,-8,-2,-2,0
15:39:22.018003,1,1,1,12,0,-3,-2,-4
15:39:22.024998,0,-2,-1,-14,-9,-1,-2,-2
15:39:22.039989,0,-2,2,3,2,-3,0,1
15:39:22.040988,1,2,1,0,-5,2,0,0
15:39:22.054979,0,-1,-2,0,-1,-1,-1,-2
15:39:22.062975,0,1,0,-2,-3,1,-2,0
15:39:22.077966,-1,-1,2,1,-1,0,-2,1
15:39:22.084963,0,-3,1,2,-8,-3,0,-2
15:39:22.099952,-3,-2,-3,-1,4,-1,-1,-1
15:39:22.100958,-2,-4,-4,0,0,0,-1,0
15:39:22.114942,-4,0,0,-1,-4,0,-3,-2
15:39:22.121946,0,0,-2,-4,2,-5,-2,-2
15:39:22.137928,-1,0,0,1,-3,-2,-3,0
15:39:22.144972,-3,-2,-1,-3,-3,0,2,1
15:39:22.159916,-1,-1,-1,-1,2,2,-1,1
15:39:22.160914,0,-2,-2,-3,-6,-5,-1,-3
15:39:22.174904,-1,-1,1,0,-3,-3,-3,-1
15:39:22.182900,-3,0,0,0,3,0,-3,-1
15:39:22.197891,-1,-3,-3,-1,-6,2,0,-1
15:39:22.204889,-1,-1,1,1,-3,-2,-2,0
15:39:22.219890,-1,0,-4,-2,6,0,0,-7
15:39:22.220877,-1,-1,-2,-1,-7,-4,-1,1
15:39:22.234870,-1,-2,-1,0,1,4,1,-3
15:39:22.242863,1,1,3,1,0,-1,-3,0
15:39:22.264848,-5,-3,-3,0,-2,-1,-1,0
15:39:22.265849,0,1,-1,-1,2,0,-3,-2
15:39:22.279839,2,-1,0,3,-1,-3,-1,-2
15:39:22.280838,0,-3,0,0,1,2,-1,0
15:39:22.294829,-1,1,0,2,-6,-6,-1,-1
15:39:22.302825,-3,-1,-3,0,-1,1,1,-4
15:39:22.317817,1,0,-1,-4,0,-2,-2,-2
15:39:22.324811,-3,1,0,-1,-2,-4,-1,-4
15:39:22.339801,0,2,-2,0,-1,-1,-3,-3
15:39:22.340801,0,0,-1,1,6,1,0,1
15:39:22.354793,-1,-2,-3,-1,-3,-4,-2,-2
15:39:22.362787,-3,3,1,1,6,1,1,-1
15:39:22.377779,-2,-1,0,0,-3,1,5,4
15:39:22.384777,0,-1,0,0,-4,-4,-2,-3
15:39:22.407761,0,0,2,0,2,-2,-2,0
15:39:22.407761,1,1,-1,-1,2,0,1,0
15:39:22.414756,-1,1,3,-2,1,0,-4,-1
15:39:22.422751,-1,0,-1,-2,-3,0,-4,-3
15:39:22.437742,1,-3,-3,1,5,7,3,2
15:39:22.445736,1,2,0,-1,-3,-4,0,3
15:39:22.459728,1,-1,0,-1,-3,2,-2,-1
15:39:22.460746,0,-3,1,-4,-3,-3,-3,-2
15:39:22.475728,-1,1,1,-1,0,0,1,0
15:39:22.482714,0,-2,-1,1,-10,0,-3,1
15:39:22.504713,0,0,-1,-2,0,0,-2,0
15:39:22.505700,1,3,-1,0,-2,-3,0,-3
15:39:22.519692,-2,-3,0,1,1,-1,1,3
15:39:22.527686,-2,-1,-1,2,-3,-1,-1,-3
15:39:22.542676,0,-2,0,0,1,3,0,2
15:39:22.542676,1,1,0,2,3,3,0,2
15:39:22.557668,0,-4,-2,0,-2,-5,-3,-3
15:39:22.564678,-1,-1,2,-3,-3,-2,1,0
15:39:22.580653,0,-2,1,-5,4,-1,-6,-2
15:39:22.587648,1,3,1,-4,0,-3,0,-1
15:39:22.602640,-3,-5,-1,1,3,0,-2,-2
15:39:22.602640,2,0,-1,3,-1,2,4,0
15:39:22.617631,0,-1,1,-3,-2,-1,-1,0
15:39:22.625635,-2,0,1,0,-7,-5,2,-2
15:39:22.640616,-1,1,1,1,8,1,1,1
15:39:22.647611,-1,-4,0,1,0,-3,-1,-2
15:39:22.662601,0,0,0,-2,-1,-3,-1,0
15:39:22.663611,-2,-1,-2,-1,1,0,-2,1
15:39:22.684587,1,-3,-2,-2,1,-2,1,0
15:39:22.685588,-4,-3,-5,-3,-1,-4,-2,-6
15:39:22.699581,1,0,0,1,1,-1,1,0
15:39:22.707578,-3,-3,-3,-5,-6,-4,-2,-3
15:39:22.722566,-2,-1,-4,-2,-1,-1,-3,-2
15:39:22.722566,2,-2,-1,-4,-2,-2,0,-1
15:39:22.737555,1,-1,-1,3,-5,-2,-3,-3
15:39:22.745551,0,-1,1,2,2,-2,-2,3
15:39:22.759544,-1,0,0,-3,0,-3,-2,-3
15:39:22.767536,-2,0,0,0,-2,-1,-1,0
15:39:22.782531,-2,-1,-2,1,-4,-3,-1,0
15:39:22.782531,2,2,2,0,3,0,-3,-1
15:39:22.797518,-3,-1,-1,-3,-2,0,2,-2
15:39:22.805517,-2,0,-2,-3,-2,-2,-1,-1
15:39:22.820505,-2,0,-3,-1,5,-1,0,-2
15:39:22.827500,0,1,0,2,0,0,-2,0
15:39:22.842491,0,-1,-1,-2,-1,-2,0,-2
15:39:22.843491,-3,0,-2,2,2,-1,-3,-1
15:39:22.857481,-1,-2,-1,-3,-2,-4,-1,0
15:39:22.865477,-3,-2,0,1,1,-1,-3,-3
15:39:22.880468,-1,-3,-2,-4,1,-1,-1,0
15:39:22.895458,3,4,3,2,2,-2,-1,1
15:39:22.902454,-2,-1,-2,-1,1,-3,-1,0
15:39:22.903453,1,-3,0,-2,1,4,2,-3
15:39:22.917459,2,0,0,0,-1,-1,-2,-1
15:39:22.925441,0,-1,-2,-1,1,-3,0,-1
15:39:22.940437,-5,-3,-3,-4,-1,-1,0,0
15:39:22.947468,1,-1,1,-1,-6,1,0,0
15:39:22.962416,0,0,-1,-2,7,1,-3,-1
15:39:22.963416,-3,-2,-5,-3,-6,-4,3,-1
15:39:22.977456,-3,-1,2,-3,0,1,-1,-5
15:39:22.985402,-3,-1,3,-2,3,5,-1,-2
15:39:23.000393,-3,-1,-2,-1,-5,-2,-1,0
15:39:23.007389,-1,-1,-1,-2,-4,-1,-3,1
15:39:23.022463,0,0,0,-3,-1,-4,-2,-1
15:39:23.030374,-1,2,-1,0,-1,1,-1,0
15:39:23.037373,-2,0,-2,-1,-3,-2,-1,-3
15:39:23.045365,-2,-3,-2,-2,-3,0,0,-1
15:39:23.060356,-2,-4,-4,-5,-9,-5,-3,-5
15:39:23.067354,0,-1,-3,1,-1,-2,-1,0
15:39:23.082348,-1,-5,1,4,2,1,-3,1
15:39:23.090348,0,-2,-1,-3,0,-1,0,2
15:39:23.105333,0,-3,-3,-4,-2,-2,1,-1
15:39:23.105333,-2,-2,-1,1,0,-1,2,1
15:39:23.120319,-3,-1,-4,0,0,-4,0,-1
15:39:23.127335,-2,0,-2,0,0,0,2,-1
15:39:23.142307,1,1,0,2,2,1,0,-1
15:39:23.150315,6,4,3,5,-3,4,0,4
15:39:23.157296,-1,-2,-3,-3,0,-3,-3,0
15:39:23.172295,1,-1,1,2,-3,-4,-5,1
15:39:23.180281,1,0,0,-1,-3,-2,0,0
15:39:23.187293,1,0,0,-1,7,-1,1,1
15:39:23.202335,-1,-3,-2,-3,0,-2,0,1
15:39:23.210264,-1,-3,-1,-2,1,-1,-1,-3
15:39:23.217260,1,2,-2,1,-3,-1,-2,1
15:39:23.225253,-4,-2,-2,1,-1,2,0,-5
15:39:23.240244,1,-2,-2,-4,2,0,0,2
15:39:23.247242,-5,-2,-2,0,-3,-3,-5,-1
15:39:23.262233,-1,-1,-1,-2,-3,1,-2,2
15:39:23.270226,-3,-3,-1,2,2,-1,-2,1
15:39:23.277223,1,0,-1,-1,-7,-4,-1,1
15:39:23.285216,-3,-1,1,-1,-1,-5,0,-5
15:39:23.300207,-1,-3,-2,-4,3,0,-3,-1
15:39:23.307203,1,-3,0,0,0,-1,-2,-2
15:39:23.322192,0,1,-3,-4,-2,-2,-2,1
15:39:23.337189,0,-2,1,0,0,0,2,1
15:39:23.338183,0,0,0,3,2,-4,-3,-3
15:39:23.345189,-1,-2,0,-1,2,0,1,0
15:39:23.360170,2,0,1,-3,-3,-1,-1,1
15:39:23.367170,1,-3,-3,0,-2,-2,-1,-5
15:39:23.382155,0,0,3,2,3,-4,-1,4
15:39:23.383155,-1,-4,-1,0,0,-1,0,-1
15:39:23.398146,-1,-1,-2,-4,-6,0,1,-1
15:39:23.405141,-2,0,2,-2,-3,-3,-5,-4
15:39:23.420132,0,1,1,1,4,-1,0,-2
15:39:23.428127,-1,3,3,0,-4,-8,0,0
