timestamp,emg1,emg2,emg3,emg4,emg5,emg6,emg7,emg8
18:57:16.909545,2,1,0,0,0,5,5,5
18:57:16.927534,7,2,-1,-1,0,1,-1,1
18:57:16.927534,0,0,0,-1,1,-2,4,16
18:57:16.940524,-5,-2,-4,-1,2,0,2,-5
18:57:16.940524,4,1,0,-4,-1,-2,14,5
18:57:16.962513,-2,0,-1,-1,-2,1,-7,-9
18:57:16.963510,0,1,-3,0,0,0,2,1
18:57:16.985498,-1,-1,-1,-1,-4,-1,-5,1
18:57:16.986496,-11,-8,0,1,-1,0,-5,0
18:57:17.000489,11,3,0,1,1,2,0,3
18:57:17.000489,3,1,-1,-1,0,-7,-4,-5
18:57:17.022478,-2,-3,0,0,-1,0,-1,-3
18:57:17.023483,10,6,3,3,2,0,4,7
18:57:17.045460,2,-1,-1,2,3,-3,-2,-2
18:57:17.046460,-3,2,0,-2,0,0,0,-3
18:57:17.067450,-3,-2,-1,0,-1,-1,-3,-1
18:57:17.068447,3,-2,-3,-3,-3,-6,1,11
18:57:17.082440,-5,-5,-1,-1,1,4,1,0
18:57:17.083436,-2,-5,-1,-3,-5,-8,-5,-4
18:57:17.105423,0,1,-3,-2,-3,1,-17,-3
18:57:17.106422,-3,0,0,0,-2,1,5,-1
18:57:17.120413,5,-1,-2,-3,-7,-2,5,2
18:57:17.121413,-1,-1,0,0,4,1,-3,-3
18:57:17.142427,-4,-5,0,0,-5,-3,-2,-6
18:57:17.143399,10,-1,-1,-5,1,2,-10,10
18:57:17.165386,-8,-3,-4,-3,-4,-7,-3,-5
18:57:17.166384,-3,-5,2,-1,-1,-2,1,-3
18:57:17.180376,2,-3,-2,-3,1,-3,4,6
18:57:17.181377,-8,1,4,4,3,2,0,0
18:57:17.202367,-1,0,0,1,-1,-2,-3,-4
18:57:17.203363,-8,-4,-4,-4,-6,0,-21,-10
18:57:17.226348,-2,-3,1,-1,-2,-1,3,3
18:57:17.226348,-6,-2,0,0,2,-3,0,-5
18:57:17.256329,-1,0,-1,-4,-2,0,-1,-6
18:57:17.256329,0,1,2,0,1,0,-1,-7
18:57:17.263328,10,2,-1,2,-2,0,1,4
18:57:17.264324,-3,1,1,0,0,1,3,-4
18:57:17.286314,-4,-2,-2,0,-1,-6,-1,-4
18:57:17.286314,2,0,-4,-1,-2,1,4,5
18:57:17.308300,-2,-4,-2,-2,-2,-1,-3,-4
18:57:17.309296,0,1,0,3,2,-1,2,1
18:57:17.323291,-7,-7,-3,-1,-3,-2,0,0
18:57:17.324291,2,0,1,-3,-1,-1,-12,-1
18:57:17.345275,-1,0,-1,-1,3,0,-1,-4
18:57:17.346275,3,3,2,2,1,3,9,9
18:57:17.368263,-2,-3,0,-2,1,-1,-4,-2
18:57:17.369259,-3,1,2,-3,-3,-3,-2,1
18:57:17.383254,13,6,2,-1,-6,-3,-2,2
18:57:17.384253,0,1,1,0,-3,2,3,2
18:57:17.413235,-1,-5,-1,-3,0,-4,-4,2
18:57:17.414232,-3,1,-2,-1,-3,1,2,-2
18:57:17.428226,-3,0,0,-2,-1,-1,14,4
18:57:17.429222,-4,-4,-1,-2,-3,-2,-2,1
18:57:17.443217,3,5,0,0,-3,-3,-1,5
18:57:17.444214,-3,-2,-3,-2,0,-1,-9,-1
18:57:17.466201,2,-5,1,1,2,-1,4,8
18:57:17.466201,1,0,-3,-3,-5,-6,-3,-3
18:57:17.488186,-3,-1,1,0,0,1,2,-2
18:57:17.489188,-2,2,0,3,5,-1,-1,2
18:57:17.503176,-3,-1,-5,-1,-2,-1,-2,1
18:57:17.504175,-5,-2,-1,-4,-2,-4,-4,-5
18:57:17.526163,-5,-3,-1,0,-5,-6,-4,-4
18:57:17.526163,1,0,1,2,2,-2,0,2
18:57:17.548152,3,-1,-1,-1,0,2,4,0
18:57:17.549151,-2,1,0,0,2,0,1,0
18:57:17.563142,-1,-4,0,-1,-4,-2,0,-1
18:57:17.564140,-3,2,-1,1,2,2,-1,0
18:57:17.586126,1,-2,1,-2,-2,-2,-2,2
18:57:17.586126,-1,-4,-1,0,-6,-1,-2,-2
18:57:17.608114,1,1,-1,1,-1,-1,-2,-1
18:57:17.609111,-1,0,0,-2,0,-2,-3,0
18:57:17.623105,-3,2,2,-1,0,-4,0,-3
18:57:17.624101,-1,-3,-2,0,-3,0,-4,-2
18:57:17.646087,-4,-3,-1,0,3,2,0,-2
18:57:17.646087,1,2,-2,-1,-1,7,-15,1
18:57:17.668077,-11,-5,-2,0,-2,-4,0,-5
18:57:17.669077,-8,-5,-2,-1,-1,0,-11,-7
18:57:17.683066,11,2,0,0,4,5,2,1
18:57:17.683066,-4,0,0,-3,-3,2,4,4
18:57:17.705052,-3,-2,1,3,5,1,-4,-10
18:57:17.706050,-6,-5,-1,-1,-2,-3,-1,-2
18:57:17.728038,-2,-2,0,1,0,-3,0,-5
18:57:17.729038,-3,-2,-2,-4,2,-3,1,0
18:57:17.743027,-1,0,-1,-3,0,-4,-6,0
18:57:17.744027,-6,-10,-1,2,0,3,2,-1
18:57:17.765015,8,4,-2,-1,-3,-4,8,10
18:57:17.766013,-2,-5,1,-1,-1,0,3,-5
18:57:17.787999,-7,-4,2,0,1,-4,-8,-8
18:57:17.788999,4,0,-2,-1,-7,0,1,3
18:57:17.802990,3,0,0,0,3,-2,1,2
18:57:17.803989,-3,0,-2,-3,-3,-6,-5,-3
18:57:17.832972,-4,-1,1,-2,0,-1,-12,-4
18:57:17.833971,7,0,-1,1,-2,-2,2,8
18:57:17.847964,-6,-4,-3,-3,-2,-1,-2,-8
18:57:17.848961,9,3,0,-4,-4,-3,-4,27
18:57:17.862952,-7,-4,-3,-1,-2,-1,-2,-5
18:57:17.863952,-1,-2,1,1,1,-3,1,-3
18:57:17.884939,0,1,-1,2,2,-1,0,-4
18:57:17.885941,-3,-3,-2,-4,-3,3,4,4
18:57:17.907925,1,5,0,2,2,3,0,0
18:57:17.908924,-2,-3,-1,-3,-1,-5,-2,-3
18:57:17.922915,2,2,0,3,-3,0,2,2
18:57:17.923914,-2,-1,-3,-4,0,2,0,2
18:57:17.945902,7,2,3,4,-1,-1,-8,4
18:57:17.945902,-1,-2,-2,2,2,-3,-1,1
18:57:17.967888,-12,-1,-1,-1,-4,-3,-4,-8
18:57:17.975882,-6,-5,-3,-4,-4,-4,-6,-17
18:57:17.989875,3,2,-2,1,0,3,5,6
18:57:17.990873,0,-1,-1,3,-2,-1,0,1
18:57:18.004866,-6,-7,-1,0,-2,2,0,-5
18:57:18.005864,3,1,-3,-4,-5,-3,2,7
18:57:18.027851,-3,-4,1,0,-1,2,1,-1
18:57:18.028850,0,1,2,-1,-2,3,2,4
18:57:18.042841,-4,-1,0,0,-5,-1,-6,-6
18:57:18.043841,-2,0,0,3,-1,2,-3,-2
18:57:18.065828,1,0,2,0,2,-1,-3,-1
18:57:18.065828,-10,-1,-4,1,-1,2,-10,-5
18:57:18.087813,-3,5,1,1,-2,3,9,2
18:57:18.088814,-1,-2,2,0,-3,-2,2,-2
18:57:18.102805,-1,0,-1,-4,-2,1,0,-1
18:57:18.103804,-2,-4,-2,0,-1,-3,-1,-5
18:57:18.125790,0,3,0,-2,1,-2,-5,-4
18:57:18.125790,-4,0,0,0,-2,4,-6,-10
18:57:18.147775,5,1,1,-1,-1,0,1,14
18:57:18.148775,1,0,1,-1,3,0,-3,0
18:57:18.162768,5,5,-1,-1,-6,-4,-5,-2
18:57:18.170761,-4,0,0,0,3,2,1,-2
18:57:18.185752,10,1,-1,-3,-3,-1,0,6
18:57:18.185752,-1,1,-2,-1,1,0,2,3
18:57:18.207738,4,2,0,2,-1,-1,-3,-5
18:57:18.208739,-4,-5,-2,-3,-2,3,-7,1
18:57:18.230725,1,4,-1,1,1,0,-7,5
18:57:18.230725,-1,-3,0,0,-1,-2,1,-3
18:57:18.245731,-1,0,0,1,1,1,0,-6
18:57:18.252712,2,-2,3,-3,-2,-1,-1,0
18:57:18.267701,-3,-1,-6,-2,0,1,0,-5
18:57:18.268701,-1,0,-1,1,0,0,-2,-8
18:57:18.290688,-2,0,-1,2,1,3,8,8
18:57:18.290688,1,0,-1,0,2,-1,-1,-3
18:57:18.305678,0,-2,0,0,-3,-3,2,3
18:57:18.305678,0,-6,-5,-2,-6,-2,-2,-4
18:57:18.327664,1,1,0,1,-2,-4,-4,-9
18:57:18.328664,2,4,5,-1,6,6,10,14
18:57:18.357647,2,0,-1,1,-1,-1,7,12
18:57:18.358645,0,-1,-3,-1,0,-3,0,-2
18:57:18.365641,-1,-1,-3,-1,0,-1,0,0
18:57:18.365641,10,3,-2,-6,-10,-7,-2,0
18:57:18.387628,-2,-1,-3,-2,0,1,0,3
18:57:18.388632,-5,-2,-4,1,-1,-1,11,-15
18:57:18.410613,9,2,2,-5,-3,6,7,7
18:57:18.410613,9,3,1,0,3,2,-2,2
18:57:18.425604,-5,-5,-2,-1,-3,-4,-5,-11
18:57:18.425604,-2,2,1,1,1,1,-1,-4
18:57:18.447591,-10,-5,-3,0,3,5,21,2
18:57:18.448593,-3,0,-1,2,-3,1,-5,-3
18:57:18.470577,-3,-8,-7,-5,-6,-1,-3,-4
18:57:18.470577,-3,1,0,-1,2,1,-1,4
18:57:18.485568,-4,-6,-3,-6,0,3,-1,0
18:57:18.485568,-3,-1,-1,2,3,2,-2,-3
18:57:18.507554,-3,0,-1,0,-6,-1,-6,-2
18:57:18.508553,-7,-4,0,0,2,-3,-1,-3
18:57:18.530540,1,-1,-1,1,-3,-1,0,4
18:57:18.531538,-8,-2,-5,-3,-3,-4,-2,-9
18:57:18.545531,2,-1,-4,0,-2,2,0,-1
18:57:18.552524,-2,-1,-2,0,-3,1,-3,-3
18:57:18.567516,3,1,0,1,2,-5,0,3
18:57:18.568516,-1,-3,-3,-1,-3,-1,2,-2
18:57:18.590503,11,3,1,-2,-1,2,-12,-1
18:57:18.590503,-5,-3,-2,-1,1,-1,-1,-9
18:57:18.605492,1,3,2,2,1,8,14,8
18:57:18.605492,0,-5,-5,-2,0,-1,-27,-4
18:57:18.628482,0,-4,-4,-1,-3,-1,3,-1
18:57:18.628482,-7,-4,-2,-5,-2,-4,-6,-8
18:57:18.650464,-1,4,-3,-3,-3,-3,-4,-3
18:57:18.650464,0,-1,-1,0,-2,1,-4,-3
18:57:18.665456,1,1,1,-1,0,-2,2,-4
18:57:18.666454,0,-5,-1,-2,-2,1,-1,-4
18:57:18.687443,2,2,0,1,2,1,-2,0
18:57:18.688445,-2,-1,-2,-2,-1,0,6,4
18:57:18.710427,-6,-2,0,-3,0,0,16,0
18:57:18.711427,-2,-4,0,-4,-9,-10,-8,-5
18:57:18.725417,7,6,2,1,4,-2,-3,9
18:57:18.726418,-5,-3,-5,-1,-3,1,-1,-3
18:57:18.748403,-3,-4,-2,1,1,-1,-16,-2
18:57:18.748403,-4,0,0,-3,-7,-2,0,-3
18:57:18.778386,10,0,-1,-2,-3,-4,-1,5
18:57:18.778386,2,0,-1,1,2,1,2,6
18:57:18.785384,-7,1,0,1,2,-1,-4,-11
18:57:18.793376,-3,-5,-4,-6,-6,-3,0,0
18:57:18.807367,7,2,1,3,4,-3,-5,3
18:57:18.808366,-3,0,0,-2,-3,-1,-3,-3
18:57:18.830354,-2,-1,-1,0,0,1,0,-1
18:57:18.831354,2,0,-2,-2,-4,1,14,3
18:57:18.845344,1,-2,2,1,-1,0,-8,-4
18:57:18.853338,1,0,-3,-1,0,2,2,-3
18:57:18.868329,-8,-1,-3,0,1,-4,-4,-3
18:57:18.868329,3,0,0,-2,-2,-1,-4,-1
18:57:18.890316,-6,-3,-1,0,-1,-5,-1,0
18:57:18.891316,5,-3,-4,-4,-1,0,-10,14
18:57:18.905307,-4,-2,0,1,-2,5,1,-1
18:57:18.913302,1,-2,1,-1,-1,-5,-6,-3
18:57:18.928292,4,0,0,3,2,1,2,4
18:57:18.928292,3,-1,-2,-4,-5,-4,-3,-4
18:57:18.950278,-3,-2,-6,-2,-1,0,-14,4
18:57:18.951278,-2,-4,-1,0,0,-3,1,-5
18:57:18.965275,2,-1,-1,-4,-5,-4,-4,-5
18:57:18.973265,-4,1,-1,-3,-2,-1,-2,-2
18:57:18.995250,4,3,0,2,-3,0,-13,0
18:57:18.996251,-8,-6,-3,-1,-5,-3,0,-4
18:57:19.010240,1,-1,-1,1,1,-1,0,1
18:57:19.011240,6,-2,-4,-4,-2,-3,0,2
18:57:19.025231,3,-1,-1,0,-3,0,0,0
18:57:19.033228,-10,-1,-2,0,-1,-4,-4,-3
18:57:19.048218,12,0,-1,-2,-3,-1,-6,1
18:57:19.048218,-1,1,0,2,2,-6,1,0
18:57:19.070204,0,-3,-6,-3,-2,1,-1,-1
18:57:19.071205,-10,-5,-3,0,-3,-4,-4,-5
18:57:19.093189,-2,-3,0,1,0,-5,-3,-5
18:57:19.093189,0,1,-3,1,3,0,0,2
18:57:19.108180,-7,1,-1,-3,-1,2,1,0
18:57:19.108180,-3,1,-4,0,-2,0,0,6
18:57:19.130166,-7,-4,-4,-1,-1,0,-3,0
18:57:19.131166,-1,3,0,2,2,-2,-1,-7
18:57:19.146161,-4,-5,-1,1,0,-1,3,-1
18:57:19.153155,-12,-5,-5,-5,-6,-9,-5,-5
18:57:19.168147,2,1,2,0,-1,2,1,1
18:57:19.169145,3,4,2,4,4,3,0,1
18:57:19.191130,-1,-2,-1,-1,0,-1,2,2
18:57:19.191130,-12,-12,-3,-3,-9,-4,-5,-10
18:57:19.206121,-2,4,0,1,-2,-3,-1,0
18:57:19.217114,-5,-3,0,1,-1,-1,1,0
18:57:19.228109,-3,-2,-3,-5,-1,-1,0,0
18:57:19.229109,-4,0,0,3,-2,-1,-2,-4
18:57:19.251092,2,1,-1,-4,-1,-4,-1,9
18:57:19.251092,4,1,2,4,7,-3,5,8
18:57:19.266083,-6,-2,0,-1,1,2,-4,-9
18:57:19.273080,-6,-1,0,-3,-2,1,-1,0
18:57:19.288072,-6,-4,0,-3,-2,-2,-1,2
18:57:19.289072,-2,-2,-1,0,-6,-1,-2,-4
18:57:19.311055,0,0,-1,-2,2,2,3,1
18:57:19.311055,-8,-2,-4,-1,-2,-6,-9,-10
18:57:19.326047,-2,-3,0,-3,-4,1,-1,-2
18:57:19.333041,-2,-2,-1,-3,-5,-4,0,-1
18:57:19.348033,3,0,-2,3,-1,1,1,1
18:57:19.349032,-1,0,1,-3,-3,-3,-1,0
18:57:19.370022,-3,-2,1,1,0,-2,-3,-2
18:57:19.371019,0,-1,-1,-1,-3,2,2,-1
18:57:19.393004,2,-1,1,2,0,-1,2,0
18:57:19.400003,0,1,1,2,6,2,2,3
18:57:19.415006,-3,-4,-3,-1,-4,-3,-3,-3
18:57:19.415992,-1,2,0,-1,-4,-4,-2,-2
18:57:19.430982,-2,0,-3,0,-1,3,-1,-3
18:57:19.430982,-1,0,-3,-7,-1,4,1,-6
18:57:19.460964,-1,2,4,-2,0,-1,2,2
18:57:19.460964,-1,-1,1,-5,-2,-3,-1,-5
18:57:19.467958,4,4,9,30,5,1,0,-2
18:57:19.468963,-1,1,-6,-13,2,-1,5,3
18:57:19.489947,-1,-6,1,-4,-7,-2,-4,-4
18:57:19.490943,-4,-1,0,-1,-4,-1,-2,-2
18:57:19.512929,-2,-1,0,2,4,-3,-1,1
18:57:19.513930,-3,-3,-1,-6,1,3,-1,-1
18:57:19.527920,-1,-2,-2,1,-3,-2,-2,0
18:57:19.528921,3,0,-2,-5,-5,-6,-3,0
18:57:19.549909,-1,-1,2,3,-4,2,3,-1
18:57:19.550906,-2,-2,-4,5,-24,2,0,-1
18:57:19.572892,-4,-1,-4,-16,15,2,-2,-4
18:57:19.573893,0,-4,-4,-6,-2,-7,-1,-1
18:57:19.587883,0,-2,2,2,18,4,0,0
18:57:19.588884,-2,1,-3,-23,-39,-13,0,-1
18:57:19.610878,-2,1,10,-6,27,9,0,-1
18:57:19.610878,3,-4,-25,-25,5,-3,4,3
18:57:19.632855,-4,0,7,24,-12,-33,-5,-10
18:57:19.633856,4,-3,-10,56,8,-27,0,5
18:57:19.647878,-8,0,5,-107,100,58,-7,-8
18:57:19.655842,-4,-29,-51,-79,-128,-128,-5,-6
18:57:19.670838,-24,-16,-6,43,-128,-128,-28,-16
18:57:19.670838,18,44,62,67,-94,127,16,14
18:57:19.692818,-6,-75,-128,23,-128,-128,2,-6
18:57:19.693818,-31,-66,-95,-128,-128,-128,-53,-40
18:57:19.707815,-27,-31,76,82,-128,-128,-31,-24
18:57:19.715805,-36,-22,-86,50,127,-1,-27,-8
18:57:19.730796,19,-10,-10,-128,-128,-128,13,4
18:57:19.730796,-32,27,105,127,127,90,-28,-43
18:57:19.752782,19,111,127,2,59,127,27,-2
18:57:19.753782,-43,-125,-128,-128,-84,-48,-27,-24
18:57:19.767772,42,109,118,-43,113,8,17,24
18:57:19.775766,-47,-41,-1,22,-29,34,-19,-25
18:57:19.790757,51,0,-86,63,-16,10,15,34
18:57:19.791758,26,117,127,127,127,127,30,7
18:57:19.812752,-14,-85,-128,-128,-128,-128,-29,5
18:57:19.813743,-63,-128,-128,48,-128,67,-20,-48
18:57:19.827746,22,86,127,127,127,127,53,25
18:57:19.835731,10,28,-82,-128,-128,-128,-24,-1
18:57:19.850719,-4,25,108,127,127,-40,-4,-23
18:57:19.850719,-55,-87,-128,-128,127,127,-20,-34
18:57:19.872709,8,-59,-77,-58,-11,-128,-8,17
18:57:19.873705,21,-8,8,-10,-128,-128,3,28
18:57:19.887700,0,-12,-21,94,-128,-128,-20,-10
18:57:19.895694,-35,-128,-128,127,127,127,-50,-15
18:57:19.917686,21,104,74,-128,-128,-128,-64,11
18:57:19.918679,64,50,39,-128,-128,-128,6,33
18:57:19.932671,-53,-101,-116,-128,-79,-128,14,-9
18:57:19.933670,-24,-35,17,-128,127,52,20,-8
18:57:19.948659,-6,-37,-80,-128,127,98,20,-6
18:57:19.955658,-22,-12,37,-95,-128,-88,-17,-24
18:57:19.970649,25,49,72,124,13,127,38,18
18:57:19.971648,15,34,16,-128,127,127,-5,3
18:57:19.993632,-48,-107,-81,80,127,-14,-21,-29
18:57:19.993632,14,-22,-67,26,127,127,22,15
18:57:20.008625,4,-78,-128,-128,-128,-71,-11,11
18:57:20.038607,13,88,108,-9,-128,-128,-34,6
18:57:20.038607,-51,-123,-76,66,127,127,3,-22
18:57:20.039606,5,-38,-41,51,127,127,44,12
18:57:20.053595,38,76,22,-128,-128,-26,4,27
18:57:20.053595,-4,21,20,-128,-128,-128,-16,-5
18:57:20.068588,-39,-95,-90,116,127,105,-1,-16
18:57:20.075580,24,72,62,127,-128,-128,-4,8
18:57:20.090575,17,18,-15,-67,127,-125,-2,6
18:57:20.091574,18,16,39,127,127,127,23,13
18:57:20.120556,-9,-42,-61,-88,-51,-48,-7,-3
18:57:20.121553,-10,-13,-9,44,-128,-51,-9,-4
18:57:20.128552,-4,-12,-21,27,-128,-80,-6,-5
18:57:20.135544,9,42,58,127,117,28,-4,-2
18:57:20.150537,-2,-5,-26,-8,127,118,5,0
18:57:20.151534,-31,-99,-90,-21,127,127,-3,-8
18:57:20.173520,-30,-61,-47,-52,127,-24,-12,-20
18:57:20.174521,24,105,85,-128,-128,-102,-8,3
18:57:20.188514,6,9,24,-7,127,-11,-11,0
18:57:20.195507,-14,-44,-54,-44,-128,-70,-12,-3
18:57:20.210497,23,41,73,96,-1,-25,13,14
18:57:20.218495,-18,-34,-41,113,127,127,13,-6
18:57:20.233486,-17,-32,-12,-128,-128,-128,-21,-11
18:57:20.240479,-16,-58,-42,-5,4,-35,-4,-1
18:57:20.248476,0,-10,-1,123,127,127,10,-3
18:57:20.255470,2,-3,-50,-128,127,-5,6,6
18:57:20.271459,-10,-21,4,35,127,127,8,-3
18:57:20.271459,-6,-28,-38,-128,127,9,5,-5
18:57:20.293449,19,35,-66,-128,127,-1,11,5
18:57:20.294448,-27,-44,-31,-128,-128,-128,-22,-15
18:57:20.308440,6,25,3,-120,-128,80,-2,3
18:57:20.316433,5,-8,-23,127,127,33,15,7
18:57:20.330426,6,13,-4,-128,-128,-128,-6,3
18:57:20.331422,5,24,14,9,-66,-128,-4,6
18:57:20.353412,11,12,16,-14,-115,35,9,5
18:57:20.353412,9,9,-20,-128,99,-6,-3,8
18:57:20.375398,-9,1,16,69,-45,-56,-2,-9
18:57:20.376397,-3,-9,-22,-89,-68,19,-3,2
18:57:20.398380,5,8,9,-35,-128,-32,-5,0
18:57:20.398380,-1,-6,-4,5,-85,-6,-3,-5
18:57:20.413375,-2,-1,6,10,-33,-12,3,-1
18:57:20.420369,1,2,3,30,43,2,1,0
18:57:20.436362,0,-5,-2,6,-2,-1,-1,-2
18:57:20.436362,-5,-2,-2,-6,0,-4,-1,1
18:57:20.451351,3,1,1,2,8,0,7,2
18:57:20.458346,-1,-3,-4,-3,-2,-5,-15,-10
18:57:20.473337,-11,-7,2,6,9,11,27,16
18:57:20.474337,-8,2,-18,-18,-20,-22,-28,-13
18:57:20.496320,-71,-5,9,0,3,4,-6,-20
18:57:20.496320,-3,-19,-25,-18,-21,-25,-5,5
18:57:20.511312,-103,67,41,35,38,10,120,35
18:57:20.518310,-76,82,-6,-15,-11,11,-128,11
18:57:20.541295,-59,-5,24,23,42,53,127,127
18:57:20.541295,127,71,-58,-68,-84,-51,-128,127
18:57:20.556283,32,-85,28,46,24,9,127,15
18:57:20.556283,127,2,23,16,27,46,-18,39
18:57:20.571276,-128,-128,-62,-43,-55,-111,-128,-111
18:57:20.578272,-96,32,-12,-5,-23,-17,127,-81
18:57:20.593262,58,3,6,6,6,2,-128,78
18:57:20.594259,-72,-10,17,-17,-11,30,124,10
18:57:20.616249,4,43,20,-62,-63,-7,2,23
18:57:20.623244,-2,41,-2,21,-86,-44,-33,18
18:57:20.631240,62,66,67,126,127,121,-49,-13
18:57:20.638235,-101,-116,-15,127,127,127,127,-128
18:57:20.653226,84,44,0,-128,-128,21,127,64
18:57:20.654225,-44,76,83,25,-128,-67,46,-71
18:57:20.676210,127,-25,-57,-55,127,127,10,39
18:57:20.676210,-67,-4,50,127,-128,-128,-128,13
18:57:20.691203,71,21,84,123,127,99,104,15
18:57:20.698198,-89,12,56,127,-44,82,-70,19
18:57:20.713189,-1,56,-2,69,-1,-4,-128,-37
18:57:20.714188,127,127,12,-7,8,-28,-128,127
18:57:20.736171,-89,-21,5,-25,-22,24,65,-87
18:57:20.736171,127,6,8,-36,-38,69,32,7
18:57:20.751162,127,117,6,102,42,-68,-18,89
18:57:20.758161,-69,-50,-13,44,-128,-21,-28,-35
18:57:20.773151,-73,-18,-5,-128,118,20,-52,-24
18:57:20.774148,22,10,9,41,50,-2,-4,31
18:57:20.796134,-32,-20,-23,18,-128,-63,-1,-45
18:57:20.796134,-39,-27,-19,-51,-32,-4,-25,11
18:57:20.811124,-23,-8,14,86,1,-19,3,-28
18:57:20.818122,127,64,27,48,-66,-27,-52,83
18:57:20.833114,-67,-29,-11,64,127,7,14,-16
18:57:20.834110,-14,-8,-27,-75,127,-16,8,-9
18:57:20.856097,-6,-9,-2,9,-128,-28,-7,0
18:57:20.856097,12,23,18,53,99,25,15,-12
18:57:20.871090,-45,-13,-8,25,90,10,-13,-32
18:57:20.878086,-78,-27,-1,-70,-34,-35,-11,-13
18:57:20.894074,-31,-5,29,127,127,65,-70,0
18:57:20.894074,1,7,22,12,127,21,13,5
18:57:20.916060,-14,-4,9,34,127,32,41,12
18:57:20.917061,67,17,7,-75,-49,29,18,63
18:57:20.931054,5,-2,-11,42,-22,-8,19,21
18:57:20.939046,-18,-10,-15,-125,14,13,0,-6
18:57:20.954039,13,6,4,26,-128,1,38,62
18:57:20.954039,-12,-2,3,-13,38,23,8,-9
18:57:20.976022,-7,-12,2,56,42,0,-4,-2
18:57:20.976022,14,15,3,-78,-128,-57,0,-2
18:57:20.991016,-64,-47,-17,29,127,28,-25,-13
18:57:20.998010,24,14,10,43,8,-43,-27,6
18:57:21.013001,33,13,22,-128,-88,-28,-3,-10
18:57:21.014002,-24,-19,-14,75,20,-32,-45,-29
18:57:21.035988,-12,-3,-4,-12,-23,7,5,3
18:57:21.035988,-15,-9,-17,-67,-128,-18,3,-2
18:57:21.050979,-23,-12,12,20,-128,-32,5,-31
18:57:21.057972,17,-1,15,50,-3,2,7,32
18:57:21.072962,-4,7,7,5,111,21,22,-8
18:57:21.073964,-1,2,-3,-39,52,6,5,-10
18:57:21.095951,3,3,-3,61,127,44,11,-1
18:57:21.096949,-11,-7,5,11,123,-3,-2,2
18:57:21.110942,-32,6,-23,-128,-110,-21,0,-7
18:57:21.117935,-16,-7,-4,58,127,-7,-9,-18
18:57:21.132926,-31,-9,4,-8,19,-29,-19,-27
18:57:21.133927,72,31,1,-2,45,40,31,58
18:57:21.155913,8,7,24,27,-15,20,17,23
18:57:21.156910,-9,0,10,3,-128,-39,1,2
18:57:21.170902,-9,-9,-25,-128,4,9,2,-5
18:57:21.178898,-11,-5,-1,-4,-15,-17,-12,-7
18:57:21.193888,20,12,-6,16,49,18,-4,27
18:57:21.193888,-16,0,1,-17,-26,-1,-9,-12
18:57:21.215873,-18,-8,-1,21,23,-10,0,-12
18:57:21.215873,-18,-14,-28,-36,-71,-43,-21,-26
18:57:21.230865,-21,-4,19,33,45,-4,-6,-17
18:57:21.237861,-2,8,20,47,50,14,5,6
18:57:21.252850,2,4,-15,-50,-21,-7,-3,-3
18:57:21.253849,-2,0,-3,10,-36,-17,1,-2
18:57:21.275837,-39,-16,-8,-29,28,10,-3,-6
18:57:21.275837,1,10,15,32,-19,-3,1,0
18:57:21.297823,3,-5,-10,-28,-41,4,7,2
18:57:21.298822,6,4,-18,-82,-84,-7,2,3
18:57:21.312819,-15,-4,5,-2,-128,3,3,-4
18:57:21.313812,-10,-3,-2,-28,63,-6,-5,1
18:57:21.335798,5,3,8,7,-76,-51,6,4
18:57:21.335798,-7,1,-5,-20,-128,-2,0,-1
18:57:21.357785,-2,-1,4,8,87,7,-2,3
18:57:21.358786,23,1,5,38,-25,0,-9,-3
18:57:21.372777,37,8,-8,-17,-67,-18,-5,4
18:57:21.373775,15,-2,1,11,-11,-5,-2,15
18:57:21.395774,6,5,9,5,60,3,-3,9
18:57:21.395774,0,-1,5,73,104,9,5,-1
18:57:21.417750,4,8,8,-9,-128,-26,5,3
18:57:21.418747,-6,-6,-8,-3,3,-2,-4,-1
18:57:21.432740,-16,-4,1,-11,-6,8,13,-5
18:57:21.433738,-34,-29,-5,22,-104,-7,-12,-20
18:57:21.455724,25,-2,6,29,61,7,6,8
18:57:21.455724,21,9,5,-45,-128,-5,4,12
18:57:21.477710,4,-7,-10,18,88,7,-6,-5
18:57:21.478710,-8,-3,-6,-12,-45,-17,-14,-4
18:57:21.492708,-28,-8,-7,-17,-11,-6,4,-2
18:57:21.493701,3,1,10,9,18,12,4,-5
18:57:21.515689,-27,0,6,19,76,33,6,-8
18:57:21.515689,6,8,0,-1,0,-7,-4,-3
18:57:21.537679,-12,-15,-6,-45,-128,-3,-2,-2
18:57:21.538675,39,19,1,16,47,0,4,17
18:57:21.552672,-6,-4,12,3,-23,0,2,-1
18:57:21.553664,3,4,15,19,-7,22,5,2
18:57:21.582648,-6,1,7,-1,17,1,-6,-1
18:57:21.583645,3,6,1,-13,-3,1,3,11
18:57:21.598636,3,-6,-5,-51,-43,-6,-1,0
18:57:21.598636,3,-4,-5,21,-3,-18,-14,-2
18:57:21.613634,15,5,-4,-10,20,-1,-3,-4
18:57:21.620624,1,0,2,-8,8,-12,-1,0
18:57:21.642610,-4,-3,4,8,127,11,-5,-5
18:57:21.643609,5,1,7,13,-20,-3,0,2
18:57:21.657600,-18,-18,-5,-10,-24,-8,7,9
18:57:21.658600,-7,-3,1,-9,13,-1,-16,-14
18:57:21.673589,22,7,-3,-56,-128,-46,-10,-10
18:57:21.680594,8,-8,-1,10,39,13,14,15
18:57:21.695577,-2,-4,1,46,69,2,1,1
18:57:21.696576,3,1,-3,-32,-54,-4,1,7
18:57:21.717563,-7,-3,-1,6,-15,-13,-6,-9
18:57:21.718561,3,1,2,7,0,4,-2,-1
18:57:21.733553,6,1,-2,1,36,-6,9,9
18:57:21.740547,-8,-2,-6,21,106,-1,-9,-10
18:57:21.755539,1,-1,0,3,30,-2,-1,0
18:57:21.755539,-3,1,3,7,18,20,5,3
18:57:21.785522,-2,-2,0,7,18,10,4,1
18:57:21.785522,6,3,-4,-27,-13,-3,1,9
18:57:21.793516,9,5,-3,18,36,12,-1,-3
18:57:21.800510,-3,2,-4,-5,28,2,0,2
18:57:21.815501,12,1,-1,-2,0,-1,-5,-2
18:57:21.816508,3,1,-1,-5,-8,-21,-4,-3
18:57:21.838487,8,3,4,2,6,-3,2,4
18:57:21.838487,2,-1,-1,0,1,0,1,2
18:57:21.853480,-2,-3,-3,0,-14,-3,-2,-7
18:57:21.860473,-4,-3,-2,-9,4,0,-1,-3
18:57:21.875464,1,4,2,-20,-128,5,4,2
18:57:21.876497,-7,-5,-5,16,44,3,-6,-7
18:57:21.898451,1,-1,-3,11,41,1,-4,3
18:57:21.898451,9,-5,4,-3,12,3,-3,0
18:57:21.913447,7,-3,-7,-5,-2,-12,-12,-8
18:57:21.920436,11,1,3,-3,-8,4,10,5
18:57:21.935427,-4,-3,0,1,-1,2,3,-2
18:57:21.936426,-1,-1,2,-9,-58,1,1,-2
18:57:21.958438,-2,2,1,19,53,28,2,-1
18:57:21.958438,-5,-5,-1,0,40,5,-4,-1
18:57:21.973404,-3,-2,-1,-8,-9,1,1,4
18:57:21.980403,-11,-10,-1,-27,-12,4,3,-4
18:57:21.995399,-11,-4,-8,0,-10,-25,-16,-21
18:57:21.996389,1,-2,-5,-6,-1,-3,-3,2
18:57:22.018376,-2,0,-4,-18,90,6,-1,-3
18:57:22.018376,3,2,3,-6,3,7,0,4
18:57:22.033366,-5,-7,-4,1,19,1,0,1
18:57:22.040401,-5,-2,1,-3,-4,1,-1,-3
18:57:22.055352,19,6,0,6,-5,-6,-2,0
18:57:22.056352,-7,-7,-5,-2,7,0,-6,-5
18:57:22.078339,9,8,3,10,10,-3,1,4
18:57:22.078339,-9,-1,0,-11,-25,-2,4,-3
18:57:22.100324,-13,-10,-6,-24,22,7,-5,-7
18:57:22.101325,15,-3,1,5,12,11,7,10
18:57:22.115315,-4,-6,1,-2,0,7,6,2
18:57:22.116316,0,1,-2,-2,4,-5,2,-3
18:57:22.138301,-1,-2,-1,0,11,0,1,-1
18:57:22.138301,0,0,-1,-7,-13,2,0,2
18:57:22.160290,3,-2,-2,-9,-3,6,1,3
18:57:22.168283,0,-1,2,24,-50,-15,1,1
18:57:22.175278,-4,-6,-5,-1,22,8,1,-2
18:57:22.176279,-3,-1,0,-5,-12,-5,-5,2
18:57:22.198265,0,1,-1,-2,10,1,-1,-1
18:57:22.198265,0,-1,-4,0,-14,-17,-8,-2
18:57:22.220282,0,0,0,0,3,5,9,13
18:57:22.221250,3,-4,-2,0,-4,-7,-3,-2
18:57:22.235280,-2,-2,-2,-16,-35,-2,-2,0
18:57:22.236241,-1,0,4,35,14,-13,-3,-2
18:57:22.258228,-3,-4,-3,-9,-3,3,0,1
18:57:22.258228,-4,-4,-3,3,65,5,-5,-2
18:57:22.281214,1,1,-1,-1,14,7,2,1
18:57:22.281214,-2,0,-1,-1,-4,-6,-4,-1
18:57:22.296209,3,-2,-1,-1,5,4,0,2
18:57:22.296209,-7,-1,0,-1,-1,-1,-7,-6
18:57:22.318193,-2,-4,-1,-1,-6,-6,0,4
18:57:22.319191,-3,0,0,2,2,-1,1,-1
18:57:22.341176,-1,-6,-3,-5,-9,0,-2,-3
18:57:22.341176,2,-3,0,3,3,-5,0,-3
18:57:22.356166,1,-1,0,22,23,-3,0,-3
18:57:22.356166,-4,-2,-1,12,31,2,-3,-2
18:57:22.378156,-3,-2,-2,-6,2,0,-3,-3
18:57:22.379153,0,-2,1,-3,-3,-3,1,2
18:57:22.401140,-12,-2,-1,-1,0,-4,-1,-3
18:57:22.401140,6,-3,-3,-3,-8,-10,-5,6
18:57:22.416129,-8,-7,-6,-3,-7,-9,-6,-8
18:57:22.416129,7,3,2,2,2,8,-2,2
18:57:22.438119,-2,-3,-2,-3,-6,0,-4,-4
18:57:22.439118,0,-1,1,-1,-10,-1,0,-2
18:57:22.461101,-1,1,1,0,-46,-3,-3,2
18:57:22.461101,-5,-2,-1,23,17,-3,-2,-1
18:57:22.476092,-3,-2,1,-3,-4,0,-1,0
18:57:22.476092,1,1,1,1,-11,-4,-4,-5
18:57:22.498078,-5,-3,-6,-6,-4,-4,-5,-2
18:57:22.499081,-3,-1,1,1,0,0,-3,-1
18:57:22.521069,-6,-7,-2,-2,-3,1,1,4
18:57:22.521069,-1,0,0,-2,0,0,4,4
18:57:22.536055,0,-1,0,-4,-3,2,6,3
18:57:22.536055,-2,-3,0,2,-6,-4,-3,-4
18:57:22.558041,-4,-3,-1,10,-20,1,-1,-3
18:57:22.559043,0,-4,-1,0,22,-4,-3,-2
18:57:22.581028,-7,-4,-4,-6,-4,-1,-1,-1
18:57:22.582031,-3,0,-2,-1,-3,-4,-2,-2
18:57:22.596018,-4,-6,-2,-3,-5,-4,-3,-4
18:57:22.597020,-2,-3,0,-4,-1,2,-1,-2
18:57:22.618007,-5,-5,-2,-1,1,0,4,-4
18:57:22.619006,-1,1,-1,-3,0,-4,-4,-3
18:57:22.640993,0,-1,-1,4,0,-2,-1,1
18:57:22.640993,2,-2,1,0,-4,-1,2,4
18:57:22.656983,2,0,1,0,0,-3,-1,0
18:57:22.656983,-2,-2,0,-4,35,2,-2,-1
18:57:22.677968,0,0,1,-2,17,1,-2,0
18:57:22.678967,-1,-1,0,-2,-2,-5,-1,2
18:57:22.700956,0,-1,-1,-4,-8,-3,-1,-2
18:57:22.700956,2,3,2,6,0,-1,3,3
18:57:22.722944,1,1,1,0,-3,-5,-2,-1
18:57:22.723939,-5,-3,-3,-1,-4,0,-1,-4
18:57:22.745928,1,0,-1,0,-2,3,2,-3
18:57:22.746924,-5,-1,-4,2,-1,-1,-2,0
18:57:22.760916,-9,0,-3,0,-1,1,-3,-2
18:57:22.767912,-6,-9,-7,-4,-6,-3,-2,-1
18:57:22.775907,1,-3,-1,4,20,-5,0,1
18:57:22.775907,-3,-3,0,15,-6,-11,-4,-4
18:57:22.798895,-4,-7,-5,-15,-13,1,-5,-3
18:57:22.798895,2,-1,-3,-3,-4,-4,-3,-3
18:57:22.820881,1,-4,-2,1,-3,-2,0,-2
18:57:22.821881,-4,-1,-2,-1,-1,0,-2,-1
18:57:22.842865,-2,-3,-3,-3,-3,-1,-5,-1
18:57:22.843865,8,0,-2,0,-1,-5,-3,-3
18:57:22.857856,-3,1,-1,-1,-5,-1,1,0
18:57:22.858855,0,-3,0,0,-1,-3,-1,-3
18:57:22.880844,5,4,0,1,5,3,1,4
18:57:22.881841,-3,-4,-1,-3,-4,-2,-3,-2
18:57:22.895835,-8,-2,-2,-18,-6,-5,-2,0
18:57:22.902830,-2,-1,1,9,5,0,0,-2
18:57:22.917819,-4,1,-1,-2,-1,4,-1,-4
18:57:22.918820,0,-5,-4,0,-5,-4,-4,-2
18:57:22.940804,-2,-1,-3,-3,0,-4,-5,0
18:57:22.940804,0,4,0,-6,-2,-3,-3,0
18:57:22.963792,0,1,-3,1,-3,-1,0,-3
18:57:22.963792,1,2,1,20,3,-4,1,0
18:57:22.978781,-3,-4,0,-1,5,1,-2,-7
18:57:22.978781,0,2,3,-1,-1,-6,0,2
18:57:23.000770,8,0,1,-1,-4,0,-3,3
18:57:23.001769,-3,-2,-4,0,3,1,-1,0
18:57:23.022752,-3,0,-1,0,0,-1,0,0
18:57:23.023753,0,-1,-3,-1,-1,-5,0,-1
18:57:23.037744,-6,-5,-3,1,0,-2,-4,-6
18:57:23.038744,2,4,0,-1,-7,-7,6,3
18:57:23.060732,-1,0,2,-6,4,4,2,-2
18:57:23.061732,2,1,6,17,35,6,0,0
18:57:23.083715,-3,0,1,10,-1,-3,-4,2
18:57:23.083715,-1,1,-2,-5,1,-2,-3,-3
18:57:23.098707,-1,0,-1,-1,-1,-1,1,0
18:57:23.098707,-3,-2,-1,-3,-3,-1,1,-2
18:57:23.120695,-1,1,-1,1,-1,2,-3,1
18:57:23.121693,-3,0,1,1,4,-1,0,0
18:57:23.143679,3,-1,0,-3,-2,-3,-4,0
18:57:23.143679,-2,0,1,3,1,0,0,1
18:57:23.158668,-4,-3,-3,-7,-4,-3,-2,-3
18:57:23.165667,0,0,-3,0,-3,0,-1,-2
18:57:23.180658,-2,-1,1,-3,-5,-1,-1,-2
18:57:23.181657,1,0,-2,-2,5,0,1,0
18:57:23.203641,-3,-2,-4,-1,-4,2,-2,-1
18:57:23.203641,8,5,2,-2,1,4,3,6
18:57:23.218631,-3,-6,-3,-3,-6,-6,-1,-1
18:57:23.218631,-3,1,-1,7,4,-1,-3,-4
18:57:23.248614,-1,-3,-2,-3,-3,-1,-2,-4
18:57:23.248614,-3,-2,-1,-3,-5,-1,-1,2
18:57:23.263606,-2,-4,-2,-1,1,-1,-3,0
18:57:23.264603,-1,0,-3,0,-3,-2,2,0
18:57:23.278594,-2,-3,0,-3,-2,-2,4,0
18:57:23.278594,0,7,3,-3,0,2,0,-4
18:57:23.300584,-5,-3,-4,0,0,1,0,-6
18:57:23.301583,0,-3,0,-1,-3,0,-1,-1
18:57:23.323569,-2,-2,-2,0,-1,1,-2,-4
18:57:23.323569,0,-2,-2,0,-1,-3,-1,-1
18:57:23.338558,0,-3,-1,1,-2,-3,0,1
18:57:23.338558,-1,-2,0,-2,-2,0,0,0
18:57:23.361543,6,2,0,0,-3,-4,-3,-2
18:57:23.361543,-4,-2,-3,-1,-5,-1,-2,-2
18:57:23.383533,-1,-2,-1,0,1,-4,-5,-8
18:57:23.384533,-5,-1,-3,-2,-1,0,-3,0
18:57:23.398523,0,-1,-5,0,0,4,-1,-3
18:57:23.399521,-2,-1,-1,0,-3,1,-5,-4
18:57:23.420506,-3,-2,-3,0,-1,-1,-3,0
18:57:23.421506,-1,0,-1,1,0,-2,0,-5
18:57:23.443492,1,1,0,-1,-2,-3,-4,-3
18:57:23.444494,16,6,1,1,-1,1,4,18
18:57:23.458483,-5,-5,-3,-5,-4,-1,-1,-5
18:57:23.458483,-2,-4,-3,-2,-5,-5,-2,-2
18:57:23.480471,-1,0,-1,-5,-2,-5,-2,-2
18:57:23.481469,1,1,-1,-2,-2,-1,-1,3
18:57:23.503458,-3,0,-2,1,3,1,-3,-1
18:57:23.503458,3,4,1,-4,-1,-3,-3,1
18:57:23.518448,4,1,-2,-1,-1,0,-1,0
18:57:23.519445,-1,-2,0,1,0,0,-1,-3
18:57:23.540432,2,-1,1,-2,-2,1,6,3
18:57:23.541431,0,-1,0,-5,-1,-3,-1,-1
18:57:23.563421,-1,-2,-1,1,-1,1,0,-1
18:57:23.564420,3,0,0,-2,-1,-1,0,0
18:57:23.578412,-1,-4,0,0,0,3,2,2
18:57:23.579410,0,-2,-2,-3,0,-1,-4,1
18:57:23.600396,8,1,-1,-2,-4,-3,-1,-2
18:57:23.601396,-1,0,-1,-2,0,-5,-7,-3
18:57:23.623383,0,0,-1,0,2,4,1,2
18:57:23.631376,2,0,0,-2,-1,-2,-1,-2
18:57:23.638374,2,-1,3,-1,2,1,-1,3
18:57:23.639374,-5,-1,-1,0,-2,-2,-1,-5
18:57:23.661360,-4,-3,-3,-1,3,0,-5,-1
18:57:23.661360,-1,-3,1,-1,-1,1,0,-1
18:57:23.683346,-5,-1,1,-1,-4,2,1,-4
18:57:23.684344,-1,-1,2,-2,-3,-2,2,2
18:57:23.698337,0,0,1,0,-1,1,3,1
18:57:23.699336,9,7,0,-1,0,2,1,0
18:57:23.721320,-2,-2,0,1,-1,2,-1,-1
18:57:23.721320,0,4,1,1,4,1,1,8
18:57:23.743309,1,3,0,0,-2,2,3,1
18:57:23.744309,0,4,-1,1,0,-4,2,0
18:57:23.758300,-2,-4,-1,0,0,1,1,-2
18:57:23.759298,-3,0,-1,0,1,1,2,2
18:57:23.781283,-3,-4,-1,-3,-5,2,-4,1
18:57:23.781283,-3,-2,-1,0,0,1,2,0
18:57:23.803272,-5,-4,-4,-2,-5,-3,-7,-12
18:57:23.804269,2,0,1,1,2,-1,1,1
18:57:23.818263,-3,-3,-2,-2,-1,1,1,0
18:57:23.819262,6,2,-4,-2,-4,-3,-5,-3
18:57:23.848244,0,0,1,2,5,-1,1,-1
18:57:23.849241,-3,-4,-1,-1,-3,-2,1,-1
18:57:23.863235,-5,-2,0,-1,-2,-1,1,0
18:57:23.864232,1,-1,-1,2,-2,-2,-1,-2
18:57:23.878226,1,-2,-2,0,1,3,4,3
18:57:23.886222,-2,3,0,2,-2,-1,-3,-1
18:57:23.900212,-1,1,1,2,2,0,3,1
18:57:23.901210,-1,-6,0,-6,-1,0,0,0
18:57:23.923198,-2,-4,1,-3,-1,-1,-4,-3
18:57:23.924194,-4,-2,-2,-3,-2,-4,-5,-5
18:57:23.946181,5,5,-1,-4,-4,-4,-1,-2
18:57:23.946181,-1,0,-1,-1,-2,0,0,-3
18:57:23.961171,5,3,2,2,5,-3,2,4
18:57:23.961171,-4,-3,-1,0,0,-4,-2,-4
18:57:23.983160,-3,-1,-3,-3,-2,0,-2,-6
18:57:23.984157,-3,-2,0,-2,0,0,0,-3
18:57:24.006143,-3,2,0,-2,-3,-1,-1,-4
18:57:24.006143,0,1,1,-2,-2,-3,-5,-2
18:57:24.021134,-3,-3,2,0,1,-3,-1,3
18:57:24.021134,-2,3,-2,0,0,3,0,0
18:57:24.043123,-4,-1,-4,1,0,-3,0,-3
18:57:24.044120,4,7,4,3,1,6,4,-3
18:57:24.066108,1,0,-1,0,0,-3,-1,0
18:57:24.066108,-3,-1,0,-3,-2,2,0,1
18:57:24.081097,-2,1,-1,0,-1,-1,-1,1
18:57:24.081097,3,-3,-1,1,-2,-2,-3,-1
18:57:24.103086,-2,2,1,0,-2,-1,1,-1
18:57:24.104084,-1,-1,3,-2,-7,-3,0,0
18:57:24.126069,1,-2,-5,-3,-2,-6,-2,0
18:57:24.126069,-3,-2,-4,-4,-1,-2,-2,-5
18:57:24.141060,3,1,1,-1,0,1,0,-3
18:57:24.141060,3,1,-2,1,0,-3,2,2
18:57:24.163049,-3,-4,1,-1,-2,-3,-1,0
18:57:24.164048,-5,-3,-2,0,-1,-3,-1,0
18:57:24.186034,3,1,1,0,1,2,4,4
18:57:24.187033,-3,-3,-1,1,-4,-4,-2,-3
18:57:24.201023,-4,0,-3,0,-3,-2,0,-4
18:57:24.201023,1,-1,-2,0,2,-2,4,2
18:57:24.223011,-6,-4,0,2,-1,1,-1,1
18:57:24.224008,-3,-1,-1,-1,-1,-5,0,1
18:57:24.245997,-2,1,1,3,-1,-2,0,-5
18:57:24.246997,-1,-4,-3,-3,-2,-2,0,-5
18:57:24.260986,4,3,-3,-2,-2,-1,2,1
18:57:24.261988,-2,-1,-3,0,2,-3,-2,-1
18:57:24.282973,-3,-1,0,0,-3,1,-3,-7
18:57:24.283974,8,4,0,-1,2,1,-2,0
18:57:24.305961,-1,-2,-2,1,1,-1,0,2
18:57:24.305961,-3,-1,2,-2,-1,-4,-2,0
18:57:24.320951,-1,-1,-4,-4,-2,1,-3,-3
18:57:24.321947,4,0,-1,-5,2,1,1,2
18:57:24.343935,-1,-2,0,-1,-3,-1,-1,-2
18:57:24.343935,-5,-2,-2,-3,0,-2,-4,-2
18:57:24.365923,7,5,-1,0,-5,-6,-2,1
18:57:24.366921,0,0,-1,-2,-3,-1,0,-5
18:57:24.380914,0,-3,-2,-2,-1,-6,-4,-2
18:57:24.381914,-2,-2,-1,0,-3,0,0,0
18:57:24.402897,1,-3,-4,1,-5,2,0,-4
18:57:24.403899,1,0,-2,-3,0,-1,-1,-1
18:57:24.425886,-1,-2,-2,-2,-3,-4,-6,-3
18:57:24.426883,0,-1,-3,0,-1,2,4,1
18:57:24.440877,-2,0,-2,0,-5,-2,-1,0
18:57:24.448871,-3,-1,2,3,1,5,1,0
18:57:24.463861,2,-1,-3,-1,-2,3,-1,-3
18:57:24.463861,-8,-5,-4,1,0,-2,-1,-2
18:57:24.493841,-2,-2,-3,-2,-3,-2,-2,-1
18:57:24.493841,-1,1,0,-1,-3,0,2,-1
18:57:24.500840,-1,0,4,4,2,-1,-3,-1
18:57:24.507837,-1,1,0,1,-1,-3,0,-5
18:57:24.522823,-2,0,0,-1,0,-4,-3,-4
18:57:24.523822,4,2,3,0,2,-1,1,4
18:57:24.545812,9,0,-4,-3,0,-6,-2,1
18:57:24.546808,-3,0,-2,-3,-2,1,0,1
18:57:24.560799,0,-2,-3,-1,-4,0,-2,-1
18:57:24.567798,0,1,3,2,3,0,2,0
18:57:24.583785,1,-2,0,0,-2,-1,-1,5
18:57:24.583785,0,1,-2,-2,4,-1,-1,-5
18:57:24.613766,-3,-2,-3,-2,-1,0,-1,-2
18:57:24.613766,-5,-5,0,0,-3,2,0,-2
18:57:24.620765,-2,0,-2,-1,1,0,0,-1
18:57:24.628758,0,-1,-2,1,2,2,2,0
18:57:24.643748,-2,1,2,2,6,3,4,5
18:57:24.644750,-1,-5,-1,-2,0,0,-5,-2
18:57:24.665737,1,1,1,-1,2,2,0,0
18:57:24.666737,-2,0,2,2,0,2,2,1
18:57:24.680728,6,-1,-3,-3,-4,-1,-1,6
18:57:24.688724,-1,1,2,1,-3,0,-2,0
18:57:24.703710,-1,-2,-3,-3,-2,0,-5,-5
18:57:24.703710,3,1,1,4,4,5,3,5
18:57:24.725708,-3,-3,-3,-2,-1,0,-4,-3
18:57:24.726697,4,2,2,2,-1,0,0,2
18:57:24.740691,0,-3,-1,-1,-3,-2,4,3
18:57:24.748686,-3,-3,-4,-4,-4,0,1,-3
18:57:24.763673,-7,0,-1,-3,-2,-4,-3,-4
18:57:24.763673,5,1,-5,-6,-5,1,6,1
18:57:24.785662,4,3,1,0,1,-5,-4,-6
18:57:24.793655,-7,-5,-1,-3,-1,-2,-2,-7
18:57:24.800653,-3,-3,-2,0,0,1,-4,0
18:57:24.808648,-6,-3,1,-4,-2,-8,-6,-1
18:57:24.823638,-5,-3,-4,-4,-1,-7,-7,-4
18:57:24.823638,-3,-2,-1,0,-4,2,-2,-2
18:57:24.845626,-1,-2,3,1,1,2,2,0
18:57:24.846626,-2,1,-2,-1,-3,-1,0,-3
18:57:24.860616,0,-2,-2,-3,0,-2,1,-2
18:57:24.868612,-6,-6,-1,1,2,1,-1,-2
18:57:24.883599,10,1,-2,-2,4,-1,-1,9
18:57:24.883599,-4,-6,0,1,-2,0,0,-3
18:57:24.905588,2,-1,1,0,4,-1,-1,-2
18:57:24.906588,-3,-4,-1,1,-4,-4,-4,-1
18:57:24.920579,-2,-3,-1,-1,-3,0,0,-3
18:57:24.928574,-3,0,-3,-2,0,0,0,-5
18:57:24.950560,6,4,1,8,4,6,14,12
18:57:24.951557,6,1,0,-1,-3,0,-2,-1
18:57:24.965551,0,-3,-2,-1,-3,-1,-1,3
18:57:24.966547,-4,-2,-3,-1,0,-4,-2,-1
18:57:24.980541,-3,-5,0,3,0,-3,-2,-1
18:57:24.988537,6,-1,-2,0,-1,-1,-1,0
18:57:25.003524,-5,-4,-1,-1,0,-5,-2,-1
18:57:25.003524,1,1,1,4,-1,-5,1,-1
18:57:25.026510,4,-1,0,0,-1,-1,-1,1
18:57:25.026510,-1,1,-1,-1,0,-4,-6,-7
18:57:25.048499,-1,-2,0,-2,0,1,-1,-3
18:57:25.049496,-5,-3,-2,-1,-5,-2,-2,-3
18:57:25.063490,-2,-2,-2,0,0,-3,-2,-1
18:57:25.064487,-2,1,1,-4,-2,0,2,-1
18:57:25.086473,5,2,-2,1,0,-2,-1,1
18:57:25.086473,-4,-4,0,1,-2,-2,2,2
18:57:25.108463,0,0,-2,2,-1,-2,-3,0
18:57:25.109462,-4,-3,-2,0,-2,-4,-1,-3
18:57:25.131446,-6,0,-3,-2,1,2,0,-5
18:57:25.131446,-6,-2,-2,0,2,-3,-6,-7
18:57:25.145436,-12,-9,2,0,-2,2,-1,-6
18:57:25.146439,10,3,-5,-6,-6,-4,0,2
18:57:25.168423,-2,-2,-1,-1,-2,2,1,5
18:57:25.169422,0,-2,-1,-4,-3,-1,-2,-3
18:57:25.183416,-5,-1,-1,1,1,3,-1,-2
18:57:25.183416,0,0,-3,-3,1,-1,1,-2
18:57:25.205401,7,5,0,0,-5,0,2,5
18:57:25.206399,-2,-1,0,1,3,1,-1,0
18:57:25.228387,11,6,0,-1,1,-6,1,6
18:57:25.229386,-6,-1,-5,-3,-2,-1,2,-1
18:57:25.243378,-2,-3,0,-5,-3,-6,-5,-1
18:57:25.244379,-1,-2,-1,-1,0,-1,-2,-1
18:57:25.265365,-2,1,1,1,1,2,7,2
18:57:25.266362,-2,2,0,0,-4,-1,-2,-5
18:57:25.288350,-4,-7,0,-1,-1,-4,-5,-5
18:57:25.289349,0,3,-2,-2,2,3,2,-2
18:57:25.303342,3,0,-3,1,-6,-6,-6,-5
18:57:25.304340,2,-4,1,1,-3,-2,-2,-3
18:57:25.326327,-1,0,0,0,-1,0,0,-2
18:57:25.326327,1,0,0,-3,-3,1,-1,4
18:57:25.348312,0,-1,-3,-1,3,-3,1,-3
18:57:25.349311,-4,0,-3,-1,-4,-2,-4,0
18:57:25.363305,-3,-3,-3,1,-1,0,-1,3
18:57:25.371297,5,9,4,5,5,-10,0,1
18:57:25.386289,-5,-6,-3,-4,0,-3,-4,-2
18:57:25.386289,-1,0,-2,-1,-1,0,-1,2
18:57:25.408277,11,1,-1,0,-2,0,1,3
18:57:25.409273,3,2,-3,-2,0,-1,-2,-1
18:57:25.423267,-8,-8,-7,-2,-1,-1,-3,-4
18:57:25.431259,-3,-2,-2,-1,0,3,-1,-2
18:57:25.446252,-4,2,-2,-4,-2,-4,-6,-2
18:57:25.446252,0,-3,0,3,1,3,-1,-3
18:57:25.468239,-6,-3,-1,-1,0,1,1,1
18:57:25.469236,-7,1,-1,0,-1,-3,-2,1
18:57:25.483230,-8,-1,2,1,0,2,3,1
18:57:25.490225,-5,-1,0,-2,0,5,-4,-3
18:57:25.506216,-5,0,0,3,-2,-1,-1,-3
18:57:25.506216,-3,0,-2,0,-2,-2,0,-5
18:57:25.536197,2,0,-4,0,2,0,0,-2
18:57:25.536197,-1,-1,-1,-2,-2,2,-2,-2
18:57:25.543190,-4,-4,1,-2,-2,-3,-3,-2
18:57:25.551188,-5,-3,-1,-1,-4,0,-1,1
18:57:25.566175,9,4,0,-2,1,0,2,9
18:57:25.566175,-2,-3,0,0,-1,-2,4,-2
18:57:25.588165,3,1,0,0,-1,-3,2,-2
18:57:25.589164,3,-4,-3,0,2,-2,-4,-3
18:57:25.603156,-4,-1,-2,-1,1,0,2,-3
18:57:25.611148,1,5,3,5,3,2,5,2
18:57:25.626139,0,-2,2,0,4,3,2,-3
18:57:25.626139,0,-2,-3,-3,-2,-8,-3,0
18:57:25.648128,4,0,-1,0,-2,-1,0,-3
18:57:25.649127,-2,2,1,-1,-1,-2,0,-1
18:57:25.663118,-5,-3,-3,-3,-2,-1,1,-2
18:57:25.671111,-6,-3,0,-2,2,-3,-4,-2
18:57:25.686101,15,2,3,-2,-6,1,3,8
18:57:25.687101,-2,-1,-3,1,0,-1,-3,-1
18:57:25.708091,1,2,3,0,-1,0,0,3
18:57:25.709090,-3,0,1,-2,-1,0,0,-3
18:57:25.723080,-5,-2,-2,-1,0,1,-3,-5
18:57:25.731077,2,-2,-1,-1,-1,0,5,4
18:57:25.746064,6,-2,-4,-6,-3,-1,0,0
18:57:25.746064,-4,-5,0,-2,-3,-8,-5,-4
18:57:25.768054,-4,1,0,-1,1,1,3,5
18:57:25.769052,-2,-1,-1,-1,-2,-3,0,-3
18:57:25.783044,1,1,0,0,3,0,3,-2
18:57:25.791039,0,1,1,-1,-3,0,0,-1
18:57:25.806027,-2,-2,-2,-2,-3,-6,-3,-5
18:57:25.806027,-8,-2,2,-4,-1,-2,-4,-5
18:57:25.828016,-6,-2,-2,-1,-2,-5,-5,-5
18:57:25.829013,-7,-3,-2,-3,-2,-3,-2,-2
18:57:25.843004,5,3,1,1,-1,-4,3,5
18:57:25.851002,-8,-2,0,-1,-3,2,-2,-10
18:57:25.865990,1,-2,-4,-1,-3,-2,-2,-1
18:57:25.865990,-1,-1,0,-3,0,7,0,0
18:57:25.887979,-5,-1,0,0,1,0,3,-1
18:57:25.888978,0,-3,-4,-4,-2,-2,-4,1
18:57:25.902970,-4,-3,-1,0,-2,-12,-5,-3
18:57:25.910964,-2,-3,1,1,1,2,1,-1
18:57:25.925955,10,6,-1,-2,-2,1,4,2
18:57:25.925955,-1,-3,-4,-2,-4,-5,-3,-2
18:57:25.947940,-2,0,-1,-3,-1,-4,-3,-1
18:57:25.948940,-8,1,-1,-1,0,-1,0,0
18:57:25.962933,-5,-4,-1,-3,-4,-6,-3,-5
18:57:25.970925,-4,-5,-1,0,-3,-7,-5,-5
18:57:25.985916,0,2,-5,-2,0,-1,-2,-4
18:57:25.985916,0,-3,2,-3,0,-4,0,2
18:57:26.007901,-3,0,0,2,0,6,2,2
18:57:26.008904,-1,1,-1,0,-1,-1,-6,-3
18:57:26.030890,-16,-8,1,-1,0,-1,1,-7
18:57:26.031887,-9,-2,-1,0,-3,-6,-3,-7
18:57:26.052874,-6,-3,-3,-1,-5,-7,-4,-5
18:57:26.053874,2,-1,0,0,1,2,0,5
18:57:26.067865,-3,-1,-4,-3,-1,-2,1,3
18:57:26.068864,-1,1,2,-1,1,-3,1,0
18:57:26.090853,1,-1,-1,0,0,4,4,5
18:57:26.098846,-4,0,-2,-3,-3,-3,-1,-2
18:57:26.105841,-1,0,-4,-6,-3,-2,0,-2
18:57:26.105841,17,1,-2,-1,0,0,-3,8
18:57:26.127828,12,5,-4,0,-2,-1,-1,-3
18:57:26.128826,6,2,0,-2,1,6,7,6
18:57:26.150813,5,1,1,1,-2,1,-1,2
18:57:26.151812,6,4,1,2,3,4,0,2
18:57:26.165807,-4,-2,-2,-4,1,-3,-1,-3
18:57:26.166806,1,1,0,0,0,-2,0,2
18:57:26.188790,1,0,-2,-2,-2,0,-1,0
18:57:26.188790,-1,-1,0,0,0,3,0,1
18:57:26.210776,-7,-4,0,-2,-1,-3,-3,-1
18:57:26.218771,-2,-4,0,-1,-2,-2,-4,-8
18:57:26.225769,-4,0,-3,3,-1,-1,-1,-3
18:57:26.226766,4,-1,-2,-1,-5,-8,-5,1
18:57:26.248753,0,-2,1,-2,-1,2,1,-3
18:57:26.248753,-5,-5,1,0,0,-2,0,-2
18:57:26.270742,1,2,1,-2,0,1,0,-3
18:57:26.271739,1,-7,1,-1,-4,0,-4,-4
18:57:26.285732,-4,0,-2,-1,-3,-3,-3,-4
18:57:26.286731,-3,0,0,-1,-2,-1,-6,-4
18:57:26.308715,1,0,-1,-2,-3,2,4,1
18:57:26.308715,1,-2,1,0,-1,4,-5,2
18:57:26.330705,-1,-2,-2,0,1,-4,0,-3
18:57:26.331701,-4,-2,-2,0,0,0,-1,-1
18:57:26.345694,-3,0,0,-3,2,2,0,-2
18:57:26.353687,1,0,0,-3,-6,-5,-1,0
18:57:26.368678,-2,-3,-4,-4,-35,0,2,-5
18:57:26.368678,-3,-2,-2,0,5,-6,-5,-4
18:57:26.390667,2,3,0,-1,5,0,-1,-1
18:57:26.391665,-6,-4,-2,-2,-2,-3,-3,-5
18:57:26.420646,-3,-3,-3,-1,-5,-5,-4,-3
18:57:26.421648,2,1,2,-2,2,1,4,5
18:57:26.428641,3,2,0,1,3,0,1,0
18:57:26.428641,5,2,0,0,0,-2,-2,4
18:57:26.450630,-3,-4,-2,-3,-3,-6,-2,1
18:57:26.451627,-4,-3,0,1,-2,1,-4,-3
18:57:26.465617,-6,-1,-1,-3,1,1,0,-5
18:57:26.473615,-5,-1,-1,2,-3,-8,-3,-1
18:57:26.488604,2,-1,-2,-1,-1,0,2,1
18:57:26.488604,-2,0,-2,0,0,0,1,-1
18:57:26.518585,-6,-1,0,-3,0,-2,0,-1
18:57:26.519587,-2,0,-3,-3,-2,-1,-5,-4
18:57:26.525581,-1,-1,-1,1,-4,-1,-3,-1
18:57:26.533576,0,0,1,1,3,0,0,-3
18:57:26.548568,-3,-1,-1,2,-1,0,-6,-1
18:57:26.548568,-3,1,-1,1,-1,0,0,-2
18:57:26.570556,-2,0,-1,-1,1,0,4,-1
18:57:26.578551,1,-1,-1,-4,0,5,0,-2
18:57:26.585544,2,2,2,1,0,-2,2,-1
18:57:26.593539,0,-3,-2,-1,-4,-3,-2,0
18:57:26.608532,3,6,0,1,1,1,-5,-6
18:57:26.608532,-2,-1,1,-3,-2,-5,-5,0
18:57:26.630518,-3,-4,-1,-2,-2,4,0,-3
18:57:26.631515,-3,-4,2,1,-3,-6,-3,-6
18:57:26.645507,-1,1,-1,-1,-2,0,-2,-3
18:57:26.653504,0,-4,-1,-1,1,0,3,1
18:57:26.668495,-4,1,2,-3,-3,-1,-1,-1
18:57:26.668495,-5,-3,-3,-1,0,-1,-2,-4
18:57:26.690481,-3,-1,-2,-5,-2,-3,-5,-6
18:57:26.691478,-6,-3,-1,0,-3,1,-1,-3
18:57:26.706472,0,2,1,2,2,-2,1,7
18:57:26.713467,-2,-4,-1,1,1,0,1,-4
18:57:26.728458,-8,-8,-3,-4,-2,-4,-6,-7
18:57:26.729458,-2,-4,-3,-2,3,-3,-2,-2
18:57:26.750442,1,0,0,-1,-1,-5,-1,-2
18:57:26.751441,0,-1,-1,0,-4,-1,0,-1
18:57:26.766432,-5,-4,-1,-1,0,-2,-2,0
18:57:26.773430,2,1,2,-1,0,3,3,6
18:57:26.788418,4,-2,0,2,2,1,5,3
18:57:26.788418,-2,-1,2,0,0,0,-1,0
18:57:26.810404,12,2,1,1,3,1,-2,7
18:57:26.818402,-5,-4,0,-1,-6,-1,-3,-2
18:57:26.825397,2,-1,-1,-2,3,0,-1,-2
18:57:26.833392,-2,-2,-4,-3,-3,-8,-4,0
18:57:26.848382,1,4,4,2,4,1,-1,-3
18:57:26.849380,-4,-1,-1,1,-2,-2,-5,-3
18:57:26.871366,-4,0,2,1,1,3,0,1
18:57:26.871366,0,-3,-2,0,-1,-5,-6,-2
18:57:26.886357,0,-2,-2,-4,-2,-2,-1,-1
18:57:26.893355,-8,-2,0,-2,-3,1,-1,2
18:57:26.908346,-3,0,1,1,2,-2,-1,-3
18:57:26.908346,-2,0,0,0,2,0,-1,-6
