timestamp,emg1,emg2,emg3,emg4,emg5,emg6,emg7,emg8
14:48:02.331165,4,0,-2,2,6,2,1,3
14:48:02.346132,-3,-1,-1,-3,-2,0,2,0
14:48:02.353125,0,-2,-1,-2,-6,0,0,2
14:48:02.368117,-4,0,1,0,2,-1,0,-1
14:48:02.369126,-4,1,-1,0,-4,-3,-1,-1
14:48:02.383107,1,0,1,0,-3,-1,-1,3
14:48:02.391102,0,0,-1,0,-6,-2,1,-3
14:48:02.405094,-2,0,-2,-1,-2,1,-1,-2
14:48:02.413090,-2,-3,-4,-2,-1,0,-2,-3
14:48:02.428081,-1,0,-2,0,0,1,1,1
14:48:02.429079,-3,1,-1,1,-1,-2,-2,-3
14:48:02.443070,1,0,-3,-3,0,-2,-3,-3
14:48:02.451065,0,-3,1,0,-3,-3,-2,0
14:48:02.465058,-1,-2,-2,0,0,-3,-1,-2
14:48:02.473051,-3,2,-1,0,0,1,0,1
14:48:02.488042,8,0,0,0,2,3,4,4
14:48:02.489040,-3,-4,2,-1,3,0,-2,-4
14:48:02.503032,-1,0,-1,-1,0,-2,-4,-3
14:48:02.511031,-1,-4,1,2,1,-2,-1,0
14:48:02.526029,0,2,-1,-1,0,1,1,-2
14:48:02.533013,-4,0,-3,-2,-4,-3,-2,0
14:48:02.548005,-3,0,-2,0,-1,-1,-2,2
14:48:02.549004,-2,2,-1,-1,2,-2,-3,-3
14:48:02.570016,-2,-4,-4,-3,-3,0,0,3
14:48:02.570989,-4,-2,-3,1,1,1,2,-2
14:48:02.585982,0,0,-1,0,-1,-4,-2,-1
14:48:02.592976,-3,-1,-1,-2,-1,-1,-1,0
14:48:02.607969,-1,2,1,2,11,6,2,0
14:48:02.608968,0,-3,-1,-3,-10,-6,-3,-3
14:48:02.622957,2,0,-2,-2,3,0,0,-2
14:48:02.630952,6,0,-1,2,-3,-6,-1,-1
14:48:02.645945,-4,0,1,-2,-1,-1,0,-3
14:48:02.652938,-1,0,1,3,3,2,-1,-3
14:48:02.667930,-2,1,-3,-3,0,-2,-2,2
14:48:02.667930,1,-1,-2,-1,-3,-1,1,-1
14:48:02.682952,1,-6,-3,0,-2,0,2,1
14:48:02.690924,-3,0,-3,-1,-3,-6,2,-3
14:48:02.705907,-3,-2,0,-3,-4,-1,-3,-4
14:48:02.712943,-3,-4,-2,-1,-1,1,0,-2
14:48:02.727896,1,-3,-4,-1,0,1,1,1
14:48:02.728893,2,-1,1,0,4,-2,-2,3
14:48:02.742947,-1,1,-4,-1,5,2,-1,0
14:48:02.757875,3,-2,-4,-1,-4,-2,-3,0
14:48:02.772865,-1,0,-1,-2,0,2,1,-3
14:48:02.773864,-1,1,-1,1,4,1,0,-1
14:48:02.787857,-3,0,0,0,-4,-2,-1,-1
14:48:02.788856,-3,0,-1,-1,-3,-2,1,0
14:48:02.802849,0,0,-2,-2,-3,-1,0,3
14:48:02.810843,-3,-3,-1,-2,-1,0,0,0
14:48:02.825833,2,-4,-1,1,5,1,0,3
14:48:02.832830,-1,1,0,0,-7,-4,0,-1
14:48:02.847818,2,-3,2,-1,-1,-2,-2,1
14:48:02.848819,-5,0,2,0,-1,-5,-4,-3
14:48:02.862815,2,-1,0,-2,-2,1,2,0
14:48:02.870810,-1,-3,0,0,2,-2,-2,-3
14:48:02.885796,-1,-2,-4,-4,-7,-5,-3,-1
14:48:02.892792,0,3,1,-1,3,2,1,-2
14:48:02.908781,-4,-3,-3,-1,-7,-5,-3,-8
14:48:02.908781,2,3,2,4,2,2,2,-1
14:48:02.922775,-1,-3,-2,-1,-3,-4,-2,-3
14:48:02.930770,8,1,-1,1,-1,-1,0,1
14:48:02.945761,-6,0,-1,-3,-1,-1,-1,0
14:48:02.953754,-2,-1,-3,0,0,-1,0,-5
14:48:02.968743,0,-1,-2,2,4,5,1,2
14:48:02.969743,-1,0,1,-1,-6,0,1,2
14:48:02.983738,1,-6,0,-3,2,-1,1,3
14:48:02.991731,2,4,0,2,3,0,3,4
14:48:03.005724,0,-2,1,4,3,-1,-1,-1
14:48:03.013719,2,1,-2,2,-5,-3,-2,1
14:48:03.028707,-1,1,0,-1,-1,-1,-2,2
14:48:03.029708,2,2,2,-1,0,-3,-3,-1
14:48:03.043700,3,2,1,5,1,2,2,7
14:48:03.050696,-3,-2,-1,0,-5,-5,-1,0
14:48:03.065686,-2,-1,0,-2,0,-1,0,-1
14:48:03.073682,-3,-1,-1,1,0,0,-2,1
14:48:03.088669,1,0,0,1,-1,-1,0,2
14:48:03.088669,-2,-2,-2,-1,0,1,-1,1
14:48:03.103663,2,-3,1,0,-1,-2,-3,-1
14:48:03.110656,-4,1,-3,-2,-5,-2,-6,-5
14:48:03.125648,2,-2,2,1,4,3,-2,4
14:48:03.133644,1,2,-2,-1,-2,-8,-1,-1
14:48:03.148632,-3,-3,0,0,-8,-1,0,1
14:48:03.148632,0,-1,1,-3,2,-2,1,-3
14:48:03.170618,-6,3,0,1,3,-3,-4,0
14:48:03.171620,1,2,-3,-2,-2,0,-1,-3
14:48:03.185612,-2,0,-1,-3,-2,-1,0,0
14:48:03.193607,-1,0,-1,-4,-2,-1,-1,1
14:48:03.208596,0,3,1,2,0,0,0,-1
14:48:03.215593,0,1,-3,0,1,1,-3,-6
14:48:03.230584,-1,-1,-3,3,-4,2,2,0
14:48:03.231580,-3,-1,1,2,-2,-2,1,-1
14:48:03.246574,-1,2,1,0,-2,2,2,0
14:48:03.253570,-2,-2,2,-1,5,2,1,-4
14:48:03.268561,-6,-1,1,-3,-6,-5,-2,-1
14:48:03.276553,0,-1,0,0,3,-4,-2,-1
14:48:03.292544,-1,0,-3,-3,-2,1,-2,2
14:48:03.292544,-2,-3,-1,2,1,-1,2,-2
14:48:03.306536,-2,-2,1,-1,-5,-2,0,-4
14:48:03.313531,-3,-1,0,-2,-1,1,-2,-1
14:48:03.328523,-1,-1,-3,-1,0,1,0,-1
14:48:03.335519,-1,-1,2,4,1,0,0,2
14:48:03.351506,1,2,2,-2,-4,-2,-2,-1
14:48:03.351506,1,0,-2,0,-4,-2,-2,-1
14:48:03.365499,-1,-2,1,2,12,-1,-2,-2
14:48:03.373495,9,1,-3,-3,-1,-1,-1,3
14:48:03.388486,-2,-2,-1,-1,3,-3,0,-3
14:48:03.396479,4,2,2,0,10,1,2,2
14:48:03.410472,0,-4,-4,0,1,-2,-2,-4
14:48:03.411470,4,0,-3,-2,-1,3,0,-2
14:48:03.426460,7,-1,2,1,0,-3,-2,5
14:48:03.433458,0,0,-1,-2,3,-2,0,-3
14:48:03.448449,-2,-3,0,-1,1,1,-2,-1
14:48:03.455443,0,-1,-2,2,0,-2,1,-1
14:48:03.470435,6,-2,1,-1,-1,-2,0,1
14:48:03.471432,-3,-4,0,0,-5,-3,0,-1
14:48:03.486426,-1,-1,-1,0,-3,0,0,2
14:48:03.493421,-3,0,0,-1,0,-1,-1,-1
14:48:03.509409,-4,-4,-1,1,-7,-1,-2,0
14:48:03.516408,1,1,-1,-1,1,-1,-1,-3
14:48:03.531395,0,-4,-1,1,5,6,0,-2
14:48:03.531395,0,-1,0,-1,-1,0,-4,-2
14:48:03.546388,-7,0,0,1,1,3,1,-5
14:48:03.553384,1,3,-2,2,3,-5,0,3
14:48:03.568375,-3,-2,-2,2,2,-1,-1,-1
14:48:03.576369,-5,-4,-2,-2,-6,-2,-1,-3
14:48:03.591358,-3,-2,-3,-1,2,0,-2,0
14:48:03.598356,-2,-1,-3,1,-1,-2,-1,1
14:48:03.607349,-1,2,0,3,2,-3,0,-3
14:48:03.613347,-2,-2,-1,-2,2,-2,-3,-3
14:48:03.628337,-1,1,-3,-1,-4,5,-2,-2
14:48:03.643327,0,-2,1,1,0,-2,-1,3
14:48:03.651327,-2,0,-1,0,1,-1,1,0
14:48:03.659317,-4,0,-2,-3,1,1,0,0
14:48:03.666311,-1,1,0,3,11,6,-2,-1
14:48:03.673309,-4,0,-2,-3,-3,0,0,-1
14:48:03.688300,-2,0,1,0,2,-7,-7,-3
14:48:03.696296,2,1,-1,1,-3,1,2,2
14:48:03.711286,-1,-1,-1,-1,0,0,-4,-1
14:48:03.718279,2,-3,0,-1,-2,1,-3,1
14:48:03.726277,2,0,-3,0,-4,0,0,-1
14:48:03.733272,2,2,1,-2,2,-2,1,-1
14:48:03.748263,0,-2,-4,-1,3,1,-1,1
14:48:03.755260,-2,-1,0,-1,1,-4,0,-2
14:48:03.771246,1,3,2,1,3,1,-1,1
14:48:03.778244,1,-1,-2,6,6,0,-1,1
14:48:03.786240,7,-3,-3,-1,0,0,-1,0
14:48:03.793233,1,-1,-3,-2,2,3,0,-1
14:48:03.809223,2,-2,0,0,0,-3,3,-1
14:48:03.816218,-3,-2,-2,-2,5,0,-1,0
14:48:03.831212,-1,-1,-2,1,1,1,1,-3
14:48:03.838207,-5,-3,-2,-2,0,-4,-4,-3
14:48:03.846202,1,-1,0,0,3,6,-2,1
14:48:03.853198,0,0,1,3,1,-1,-1,0
14:48:03.868188,-4,-2,-3,-2,-4,-2,-1,-1
14:48:03.876181,0,0,-2,1,-2,-4,-2,-1
14:48:03.892172,-4,-5,-3,-1,3,2,-2,-2
14:48:03.898170,0,2,2,1,-7,-2,0,0
14:48:03.906172,-5,-3,-1,1,1,1,0,1
14:48:03.913158,-2,-2,-1,-1,4,3,-3,0
14:48:03.929151,1,-4,1,0,0,-5,-2,1
14:48:03.936143,5,-3,-3,-2,-3,-4,3,4
14:48:03.951137,1,0,3,0,3,-1,2,-2
14:48:03.951137,-3,1,-1,-2,-1,1,-2,1
14:48:03.966125,0,0,0,0,-2,0,1,-1
14:48:03.973123,-1,-2,-1,-6,-11,-1,0,-3
14:48:03.988114,-2,-3,0,-3,-2,-3,-1,-3
14:48:03.996109,1,-1,-3,-2,0,0,-1,-3
14:48:04.011100,-3,0,3,0,-2,-1,-1,-1
14:48:04.012098,1,-2,-1,0,3,2,2,-3
14:48:04.026088,0,-2,-2,1,-1,0,0,-3
14:48:04.033086,-1,0,1,5,1,-4,-3,1
14:48:04.048077,-1,-1,-2,-3,0,-4,0,2
14:48:04.063067,2,-1,3,-3,-1,-5,-2,-2
14:48:04.071060,0,-3,0,11,17,3,-1,0
14:48:04.071060,-4,-3,-6,2,20,1,-1,1
14:48:04.086051,0,0,-15,-13,-14,-11,-1,0
14:48:04.094046,-8,-6,2,5,8,-1,-5,-5
14:48:04.109037,0,3,4,9,-1,3,2,4
14:48:04.116035,-6,-5,-13,-4,-4,-3,-3,0
14:48:04.131026,0,2,11,15,2,0,0,-1
14:48:04.138021,-1,-3,-3,-15,-20,4,-1,-2
14:48:04.153012,1,5,10,16,7,2,-2,-2
14:48:04.154011,2,-1,-19,-24,-6,-1,1,-2
14:48:04.168999,-6,-6,-2,-14,32,-2,-4,-5
14:48:04.175995,-4,-1,-11,-1,11,-3,-3,-1
14:48:04.191986,0,6,12,-2,-72,1,-2,-3
14:48:04.197982,1,-5,-16,-34,-46,-11,-1,-1
14:48:04.213974,0,5,22,17,35,8,0,0
14:48:04.213974,-3,-2,-7,22,7,6,-1,-5
14:48:04.228962,-1,-6,1,-16,-17,3,-1,1
14:48:04.235961,2,5,-22,39,60,8,4,3
14:48:04.250951,-7,-7,10,19,-16,-13,-9,-7
14:48:04.258945,9,11,-8,-16,22,1,4,5
14:48:04.272934,-9,-17,-12,22,53,0,-7,-10
14:48:04.275937,0,-1,1,20,-61,-24,-4,-5
14:48:04.288925,-2,2,-11,-26,108,21,1,-3
14:48:04.295923,-8,-22,-21,68,127,-15,-10,-5
14:48:04.310915,4,20,59,42,-128,-30,8,4
14:48:04.318907,4,4,-19,77,127,-3,-4,3
14:48:04.333898,13,20,63,-107,-128,-13,10,13
14:48:04.333898,-27,-38,-80,127,127,31,-19,-25
14:48:04.348888,8,7,-77,-128,-128,-37,-3,-1
14:48:04.355886,2,9,-24,-128,-128,-28,3,-1
14:48:04.378870,-27,-56,18,127,127,97,-16,-20
14:48:04.378870,6,-2,-54,-128,-128,-128,-7,5
14:48:04.396858,-4,-8,-47,127,1,18,-6,-5
14:48:04.396858,9,10,-94,-128,-128,-128,18,10
14:48:04.408850,-40,-73,-113,127,127,42,-33,-33
14:48:04.415846,35,127,127,127,127,127,51,27
14:48:04.430837,-58,-128,-97,127,127,-96,-71,-42
14:48:04.437908,21,45,67,-99,31,88,27,23
14:48:04.452823,8,-18,-90,54,-85,0,8,10
14:48:04.453822,-4,-4,13,-73,19,-30,-8,-2
14:48:04.467816,21,58,77,17,-128,-38,18,6
14:48:04.475810,-45,-87,-45,-111,-53,-41,-33,-30
14:48:04.491800,31,104,86,127,-42,-35,17,11
14:48:04.498797,-31,-103,-110,-72,-14,-15,-24,-14
14:48:04.513786,46,127,127,127,-128,29,29,13
14:48:04.513786,-99,-128,-112,-128,-29,7,-52,-53
14:48:04.528779,3,-61,-101,127,127,-122,-3,9
14:48:04.535772,40,102,127,-128,-128,108,38,17
14:48:04.550766,49,113,117,127,127,127,31,18
14:48:04.558759,-26,26,45,-128,-128,-103,-30,-11
14:48:04.574749,40,-35,-71,-128,-128,-84,18,19
14:48:04.574749,-19,25,72,-128,-128,-128,-35,-12
14:48:04.588742,-92,-128,-89,-128,-128,55,-47,-43
14:48:04.595737,-26,-27,-33,-128,17,2,-21,-13
14:48:04.610728,11,60,127,-128,-128,-74,-3,1
14:48:04.618721,38,90,127,41,127,127,25,24
14:48:04.633713,-11,-25,-108,-128,-128,-128,-18,-13
14:48:04.633713,-24,-92,-128,15,-128,-128,-5,-3
14:48:04.648705,-10,37,82,-128,-128,-117,-29,-21
14:48:04.655700,-55,-128,-128,-80,20,-5,3,-5
14:48:04.663695,36,62,-30,27,124,4,14,19
14:48:04.678687,10,46,29,-59,127,39,4,0
14:48:04.685682,-16,-47,-87,-61,127,-16,-17,-12
14:48:04.700673,-59,-128,-128,12,54,1,-10,-16
14:48:04.709667,-27,-56,-45,127,-128,127,-15,-18
14:48:04.715663,48,127,110,127,127,-20,5,8
14:48:04.730654,27,58,55,-128,-128,-21,5,10
14:48:04.745644,-88,-128,-106,-128,33,100,-27,-43
14:48:04.746642,1,-41,-27,-128,-128,-91,-10,4
14:48:04.753637,11,85,106,-128,-111,10,-4,-10
14:48:04.768631,1,-33,-53,-20,-59,13,12,8
14:48:04.775624,4,4,-4,127,127,87,9,4
14:48:04.798609,-14,-17,-14,-103,-20,-42,-8,-10
14:48:04.798609,4,16,1,105,-50,70,-1,-4
14:48:04.805607,23,41,30,87,127,56,22,18
14:48:04.813602,3,-6,2,49,59,47,5,3
14:48:04.828593,-8,-61,-73,127,127,-11,9,3
14:48:04.835588,-41,-86,-40,127,127,-1,-17,-26
14:48:04.850579,20,65,85,-98,127,6,-5,6
14:48:04.858572,-15,-33,-31,-30,-128,0,-14,-9
14:48:04.865570,-40,-119,-71,-128,-128,-112,-18,-12
14:48:04.873565,2,24,-7,127,-94,-48,-11,-10
14:48:04.888556,29,50,53,127,127,113,25,19
14:48:04.903546,31,64,62,-128,127,-100,3,17
14:48:04.911542,14,46,38,-128,-128,-16,5,4
14:48:04.918537,30,51,45,-53,-128,-42,5,7
14:48:04.926530,0,9,19,-102,127,127,6,-1
14:48:04.933528,32,36,73,127,35,54,19,20
14:48:04.948519,16,33,43,-128,-128,-38,3,9
14:48:04.955514,-9,-1,-12,-5,127,-19,-9,-7
14:48:04.970504,25,34,2,127,127,-20,8,9
14:48:04.978500,14,28,30,-124,-128,-23,3,9
14:48:04.985494,7,20,7,-128,-128,-21,-6,-1
14:48:04.993491,7,1,15,127,127,95,13,6
14:48:05.009478,1,-6,2,-44,-59,-15,-3,-2
14:48:05.015476,-10,-10,-30,-30,81,3,1,-5
14:48:05.030469,-15,-25,-4,-41,-39,-7,-6,-8
14:48:05.038460,19,36,18,127,127,15,11,12
14:48:05.046455,-10,-19,-12,-75,-10,-8,-6,-7
14:48:05.068444,4,7,5,-8,-54,16,3,2
14:48:05.069444,-1,2,-1,-55,-128,-10,0,-1
14:48:05.076440,-1,-1,-2,-94,-49,-6,-4,1
14:48:05.092427,-10,-15,-13,-34,127,8,-8,-5
14:48:05.098426,1,4,7,30,33,27,0,-3
14:48:05.105418,1,1,-2,-16,-9,-6,-1,4
14:48:05.121408,-2,-1,-5,-10,-9,-10,0,-1
14:48:05.128407,8,6,4,3,3,-1,16,3
14:48:05.135402,-13,3,2,8,9,20,-39,10
14:48:05.159386,-5,13,5,5,-1,-6,9,-19
14:48:05.160386,-7,-3,5,10,17,23,16,58
14:48:05.165381,-13,-12,-11,-11,-18,-10,-52,-27
14:48:05.181371,100,27,10,12,19,-10,127,59
14:48:05.188370,-85,-77,-40,-31,-29,0,127,-37
14:48:05.196365,66,56,22,12,1,-18,127,-34
14:48:05.211357,-83,-35,-11,1,15,41,-128,-24
14:48:05.218352,16,10,-2,-17,-40,-1,127,-26
14:48:05.226344,-86,37,36,38,50,55,127,77
14:48:05.241334,4,-99,-42,-35,-22,-50,-128,-128
14:48:05.248332,-51,-2,-13,-25,-29,-5,127,15
14:48:05.255328,-97,54,17,9,-3,-24,12,-23
14:48:05.271316,-38,-33,-30,-117,-17,35,-128,27
14:48:05.278314,-4,22,43,127,-6,15,44,-2
14:48:05.286308,-54,19,2,-52,-22,-25,-12,-23
14:48:05.301300,-128,-128,-52,-128,-114,-12,-66,87
14:48:05.309293,-57,-34,-40,-51,17,-33,-44,-63
14:48:05.316292,27,-29,-5,-17,-61,-1,-51,-30
14:48:05.331278,0,41,47,48,127,-43,-11,-19
14:48:05.338277,-24,-41,0,127,123,29,-7,-11
14:48:05.346269,20,30,5,44,-1,34,14,10
14:48:05.361260,9,-90,-37,-128,-116,-31,-15,-17
14:48:05.368255,127,-128,-28,80,91,11,-57,117
14:48:05.376251,-3,42,19,-114,-2,13,-12,-28
14:48:05.392244,-67,31,14,65,-26,-53,-71,-16
14:48:05.398240,-26,4,51,123,97,-29,1,45
14:48:05.406235,-1,4,-24,102,-95,9,10,-8
14:48:05.421226,8,-15,38,40,69,4,-14,-12
14:48:05.429221,11,2,-10,-68,-17,-8,-6,-4
14:48:05.436214,-9,-10,-1,-74,-43,-6,-44,-27
14:48:05.451204,-14,-17,-8,55,61,-3,-4,-24
14:48:05.459199,2,23,58,43,12,23,15,1
14:48:05.466195,-13,-1,47,82,127,19,11,-32
14:48:05.481192,-1,1,2,-29,-78,-21,8,-10
14:48:05.488183,47,17,7,-4,24,-14,-18,-3
14:48:05.496180,40,-8,-39,14,10,-33,-13,-25
14:48:05.511170,2,8,3,-85,-41,-11,-11,-14
14:48:05.518165,7,8,22,93,111,43,17,15
14:48:05.526161,12,-8,3,55,127,18,-8,9
14:48:05.542148,9,-10,-29,-58,-68,-3,-1,4
14:48:05.548147,10,9,-16,-8,31,7,7,10
14:48:05.556139,-23,-12,11,22,23,-2,15,11
14:48:05.571133,-31,-6,-4,23,-19,-52,-34,-32
14:48:05.578128,-1,1,-41,-128,-25,-17,-8,-3
14:48:05.586121,-13,-8,18,13,-79,-22,-5,-13
14:48:05.601115,-7,3,64,27,-31,-15,-2,-1
14:48:05.609109,-2,7,8,-26,23,1,0,-4
14:48:05.616104,68,18,23,20,86,34,29,37
14:48:05.631095,37,8,-16,-7,11,-10,2,6
14:48:05.638091,-6,-25,-12,-12,53,-2,8,26
14:48:05.653081,-6,-3,18,57,99,4,-6,-13
14:48:05.661077,1,-14,9,94,18,19,19,29
14:48:05.676068,1,-3,-39,-57,-105,-22,-2,-6
14:48:05.676068,2,8,10,28,23,13,-11,16
14:48:05.691056,5,8,-21,10,-18,-13,-1,-10
14:48:05.698057,-6,6,7,-10,2,-2,3,0
14:48:05.713043,-17,-12,-9,-1,-17,-13,-12,-21
14:48:05.721040,10,4,17,-14,2,14,2,3
14:48:05.736032,-1,-4,-15,-34,-18,-6,-4,1
14:48:05.736032,0,-1,-11,-54,27,-9,0,1
14:48:05.751021,-3,-7,-20,-76,57,-3,-5,-5
14:48:05.759014,5,-7,-4,8,33,2,-5,-6
14:48:05.774004,3,1,6,26,5,12,17,23
14:48:05.781002,-7,2,5,1,-23,0,-1,-5
14:48:05.795990,2,0,-7,-3,-45,-1,7,8
14:48:05.796990,-1,-5,-11,3,16,4,6,-1
14:48:05.810984,2,-2,-5,-57,-35,-4,-3,-3
14:48:05.817977,-5,-7,-8,34,40,-12,-5,-4
14:48:05.833970,7,2,-5,13,1,-5,0,7
14:48:05.841963,-17,-6,9,28,-13,-17,-2,-14
14:48:05.855955,0,3,0,-2,-4,-10,-12,-11
14:48:05.855955,16,2,3,11,72,26,10,14
14:48:05.870947,-2,2,0,8,-41,-7,3,1
14:48:05.878939,0,-1,0,-5,21,4,-1,3
14:48:05.893929,2,-3,-9,-115,-107,-7,-1,-2
14:48:05.900928,0,-9,-4,42,1,-6,-4,-1
14:48:05.915918,2,-2,5,9,-6,1,-2,-7
14:48:05.916916,-11,-9,0,1,1,-3,0,-1
14:48:05.930909,1,-1,6,-5,-5,-3,0,1
14:48:05.937903,-2,-3,-9,-15,-3,0,-1,0
14:48:05.953895,-11,-1,-6,-4,-36,-9,-6,-3
14:48:05.960887,1,-1,8,23,-13,-2,-1,1
14:48:05.975879,1,-1,2,6,18,4,2,-1
14:48:05.976886,2,1,-4,-9,35,1,2,2
14:48:05.991870,-5,1,-1,-68,-22,2,0,-1
14:48:05.998867,-4,-3,-5,20,18,-4,1,-4
14:48:06.013855,-7,-2,-1,-1,1,0,-1,-4
14:48:06.020854,2,3,-2,-5,-8,-9,-8,-5
14:48:06.035841,-2,-1,-4,-5,-47,-1,-2,-2
14:48:06.043837,22,-5,-5,-1,-5,1,2,12
14:48:06.058829,-4,1,2,-43,-49,-8,-3,0
14:48:06.059827,0,-4,-5,5,15,4,-5,-1
14:48:06.073819,2,-1,6,-17,25,2,0,-2
14:48:06.080816,-4,2,-10,-10,7,-10,-5,-5
14:48:06.095807,15,-1,-1,1,11,2,0,18
14:48:06.103799,-1,-1,0,-1,0,3,-2,-2
14:48:06.118792,3,-1,-3,-3,1,0,4,3
14:48:06.118792,-2,4,1,1,-23,-8,-1,-1
14:48:06.133781,-4,-6,-3,12,11,-4,2,4
14:48:06.141777,4,-1,-2,-1,3,2,-2,-4
14:48:06.163762,1,0,2,8,-12,-3,-4,-4
14:48:06.163762,-1,-2,-1,5,31,3,0,7
14:48:06.178753,2,4,1,-4,16,-5,-1,1
14:48:06.178753,0,-2,-4,6,-25,10,2,-1
14:48:06.193747,-4,-1,-1,0,45,0,-2,-5
14:48:06.200742,-3,-3,0,-6,0,2,1,-1
14:48:06.215732,-5,6,1,0,-5,1,-2,-5
14:48:06.223726,-1,0,0,8,8,4,-1,-3
14:48:06.238716,1,0,4,10,-8,1,7,2
14:48:06.238716,0,3,1,-2,2,-1,-2,-2
14:48:06.253706,4,3,1,4,-17,-3,-2,0
14:48:06.260705,-2,-3,-2,4,10,-5,-3,-7
14:48:06.276692,3,1,0,-13,-2,-2,0,-2
14:48:06.283691,4,-1,1,11,3,7,2,5
14:48:06.298678,1,4,-1,0,2,2,3,-3
14:48:06.298678,-1,1,0,6,-47,-2,-1,-5
14:48:06.313672,-3,2,0,1,43,2,-2,0
14:48:06.320668,1,-9,2,1,3,0,3,8
14:48:06.335659,0,2,3,0,-2,0,4,5
14:48:06.343654,-2,2,0,1,-1,2,1,-1
14:48:06.358643,2,4,2,7,1,-4,2,0
14:48:06.359645,-2,-1,-1,8,7,6,-3,0
14:48:06.373635,0,-1,1,-5,-1,-2,-2,3
14:48:06.380631,-2,-3,-1,0,4,-1,-1,-5
14:48:06.395621,-1,0,1,-20,-15,-4,3,1
14:48:06.403613,4,1,0,4,2,1,2,3
14:48:06.418604,-5,-1,-1,0,-3,0,-2,-1
14:48:06.418604,-4,-5,-3,-2,-4,1,-2,-5
14:48:06.433598,-1,3,2,12,-47,0,4,1
14:48:06.441591,-3,0,-4,1,13,-4,-2,-3
14:48:06.455584,-1,-2,-4,19,3,3,2,0
14:48:06.463579,1,0,-1,-41,-27,-4,-2,3
14:48:06.478568,2,-2,0,12,7,0,-1,2
14:48:06.479570,0,1,2,-2,-2,-7,-6,-4
14:48:06.493560,9,1,1,-3,1,-1,5,11
14:48:06.500556,-5,-1,-2,0,-11,-10,-6,-6
14:48:06.516546,8,1,0,5,4,2,5,3
14:48:06.523539,0,0,0,11,12,6,2,0
14:48:06.538532,-2,-2,-4,-1,22,-6,1,-3
14:48:06.538532,-2,-2,0,-1,3,-3,-1,-3
14:48:06.553523,-3,3,1,-3,-1,-1,-1,-2
14:48:06.560519,-3,-3,-4,-3,-3,-6,-3,-6
14:48:06.576507,-1,-2,2,3,-3,-2,-2,0
14:48:06.583505,-5,2,0,14,3,2,0,-6
14:48:06.598495,-2,-1,-4,-7,-11,-2,0,-4
14:48:06.598495,2,-2,-3,-21,6,-1,-3,-5
14:48:06.613486,-4,-5,-1,1,-11,-4,-3,-4
14:48:06.620485,1,1,2,1,11,3,2,4
14:48:06.635471,-1,-3,-1,-3,5,1,-3,4
14:48:06.643467,2,1,-2,-3,-6,-1,1,-3
14:48:06.658456,-1,-1,-3,-3,-4,-5,-1,-1
14:48:06.659455,2,4,1,1,7,3,3,-1
14:48:06.673449,-1,0,0,3,7,-1,-3,-2
14:48:06.681443,-2,0,1,-2,0,-1,2,-1
14:48:06.696434,8,1,2,0,4,0,7,7
14:48:06.703430,1,1,2,15,1,-1,1,1
14:48:06.718421,-1,-2,-4,-26,-6,-1,-3,-1
14:48:06.719418,0,-5,1,11,7,-1,-2,-3
14:48:06.733412,1,-3,1,-1,1,-2,-1,-2
14:48:06.741406,-8,0,1,0,-1,1,-4,-8
14:48:06.756398,-2,1,1,0,-2,1,0,2
14:48:06.763393,-2,0,-4,-1,1,0,0,-3
14:48:06.778384,-7,-2,-1,2,-1,-2,-3,-10
14:48:06.779380,2,2,0,3,13,7,3,3
14:48:06.793374,2,-2,-2,-1,5,0,-1,-1
14:48:06.800370,-5,-1,-2,8,-2,-6,-7,-9
14:48:06.816361,1,-4,-2,-8,-14,0,-3,2
14:48:06.823355,1,1,-1,-1,1,1,2,-1
14:48:06.838347,-1,0,-2,1,-3,-2,-3,3
14:48:06.839346,0,1,-1,-15,1,1,2,1
14:48:06.861330,0,-1,2,4,5,-3,1,0
14:48:06.861330,5,-3,0,-2,1,1,3,11
14:48:06.876321,1,0,-1,-2,2,-1,-2,-3
14:48:06.883318,0,-3,-2,-4,-5,-3,-2,-4
14:48:06.898309,-3,-4,-2,-3,-3,-2,-3,0
14:48:06.899306,0,-2,-1,-3,0,-2,-3,-5
14:48:06.913300,4,3,-1,-3,7,8,1,3
14:48:06.920296,-3,-5,-2,4,7,1,-2,-1
14:48:06.936286,1,0,0,2,1,0,3,4
14:48:06.943281,1,0,1,-3,-7,-11,-7,0
14:48:06.959272,-1,-1,4,28,-1,3,-5,-1
14:48:06.966264,-9,-5,-3,4,2,2,-2,-4
14:48:06.981255,2,0,-3,-1,-5,-1,-2,1
14:48:06.981255,-1,-1,-1,1,4,-1,1,-2
14:48:06.996246,2,3,2,-2,0,3,2,1
14:48:07.011237,-2,0,0,1,6,3,0,1
14:48:07.018235,3,1,-3,0,-3,-4,2,5
14:48:07.026228,-7,-7,-2,0,6,-1,-4,-3
14:48:07.041218,0,5,-1,-4,-4,-3,6,2
14:48:07.042220,0,0,1,10,3,-4,-2,1
14:48:07.056209,-3,-2,0,-19,-23,-2,2,-1
14:48:07.063207,-1,1,0,5,3,2,5,-2
14:48:07.078198,-1,0,1,4,13,8,4,3
14:48:07.086190,0,1,-2,-3,-4,1,-2,-3
14:48:07.101184,0,1,1,30,-1,5,1,-1
14:48:07.101184,-1,-1,2,2,-5,0,3,2
14:48:07.116176,3,-1,0,-2,-1,-2,2,1
14:48:07.123169,0,-2,-1,0,0,-6,-1,-2
14:48:07.138161,7,-1,-3,-1,8,2,1,6
14:48:07.146156,-3,1,0,-5,-2,-5,-6,-2
14:48:07.161144,-3,-4,-6,-4,-3,-4,-5,1
14:48:07.161144,0,0,-3,0,-2,-2,1,-1
14:48:07.176135,0,-2,1,2,2,-1,-4,-2
14:48:07.183133,2,0,0,-1,-2,-3,3,2
14:48:07.198123,-1,-3,-4,-1,4,3,-1,0
14:48:07.213114,-2,0,-1,-10,-14,-5,-1,0
14:48:07.221106,9,-1,-1,2,10,2,-1,4
14:48:07.221106,-6,-5,-1,2,-2,-3,-4,-4
14:48:07.236097,-3,-1,-2,-3,6,3,-2,1
14:48:07.244096,-2,-3,-2,-3,-5,-2,-3,-3
14:48:07.266078,-4,-3,-1,-2,1,0,-1,-4
14:48:07.266078,1,-2,-1,0,-8,0,-1,-2
14:48:07.281069,-2,-2,1,1,-1,0,2,-2
14:48:07.281069,3,2,2,-3,-4,1,-3,0
14:48:07.296063,-2,0,0,1,-1,-5,-1,-1
14:48:07.303058,-4,-4,-1,-10,-1,0,-1,-5
14:48:07.319046,-2,3,1,4,-1,-1,-1,3
14:48:07.326041,0,-2,-1,-5,0,1,0,0
14:48:07.342033,-3,-1,-5,-31,-16,-3,-3,-2
14:48:07.343035,-5,-4,0,-8,-10,-2,-1,-3
14:48:07.356025,15,2,1,4,9,-2,0,11
14:48:07.363021,-3,2,0,1,2,0,-1,-1
14:48:07.379010,-1,-2,-1,0,-3,-7,-2,-1
14:48:07.386007,-2,-2,2,0,2,1,-3,-2
14:48:07.400998,2,-1,-1,-3,-8,0,0,4
14:48:07.401998,4,1,0,1,6,4,1,1
14:48:07.415988,3,0,0,-1,3,0,-3,-3
14:48:07.422982,0,-2,-1,-5,-9,2,1,0
14:48:07.437975,-1,0,0,3,-3,-2,4,2
14:48:07.445970,1,-1,-4,-3,0,1,2,2
14:48:07.460961,1,-3,-2,2,4,-3,-5,-5
14:48:07.461959,0,2,0,2,5,-4,-1,-1
14:48:07.475952,-1,1,2,1,2,4,1,2
14:48:07.482945,-4,-3,-2,-5,-5,-7,-5,-3
14:48:07.498938,-5,-3,1,-1,-1,3,0,-3
14:48:07.505932,-2,-2,2,0,2,2,-2,-1
14:48:07.521923,1,-2,-3,-8,0,-3,-1,-1
14:48:07.521923,-4,0,0,11,-13,-3,2,4
14:48:07.535914,-2,-3,-2,4,8,1,0,-2
14:48:07.543906,2,1,1,3,3,1,3,2
14:48:07.558901,-6,-6,-3,-4,-3,-1,-3,-4
14:48:07.565895,-2,2,1,1,-2,-2,1,-3
14:48:07.580886,2,-1,1,9,11,3,2,2
14:48:07.581882,2,0,-4,-2,1,1,0,3
14:48:07.595877,4,2,-3,1,6,2,0,0
14:48:07.602872,2,0,-2,1,0,-6,-4,-3
14:48:07.625855,1,-3,-2,-5,1,-4,-5,-4
14:48:07.626855,-6,-1,-1,4,4,-2,-3,-1
14:48:07.641847,-4,-2,-1,-1,1,1,1,1
14:48:07.642846,-4,-1,1,-1,-16,-2,-3,0
14:48:07.655840,-2,-1,0,8,8,-2,1,0
14:48:07.663835,-2,-2,-2,4,0,2,0,-4
14:48:07.678823,-2,-1,1,-1,-4,-2,3,5
14:48:07.685822,2,0,-2,1,2,1,1,4
14:48:07.700812,6,0,-1,0,6,-2,2,6
14:48:07.701808,6,3,1,-3,-9,1,0,1
14:48:07.715802,-5,-1,-1,-2,3,-1,1,2
14:48:07.723795,1,0,-3,7,10,0,2,2
14:48:07.738788,6,3,1,-2,3,0,2,2
14:48:07.745784,-1,-1,-1,1,3,0,-4,-2
14:48:07.760775,-3,-3,0,2,1,-1,0,2
14:48:07.761772,1,-3,1,0,-2,0,-1,-4
14:48:07.775762,11,-2,-1,-2,-1,0,1,16
14:48:07.783760,1,0,1,0,-15,2,2,-3
14:48:07.798750,-4,-1,2,4,21,-1,-1,-4
14:48:07.805747,9,5,4,1,-1,4,2,7
14:48:07.820737,0,2,1,-3,-8,-1,0,-1
14:48:07.821737,2,-1,-1,-3,-5,1,3,-1
14:48:07.835728,-6,-5,-3,1,1,-2,-1,-2
14:48:07.843721,2,-3,0,-4,0,1,-1,1
14:48:07.859714,4,2,1,-16,-21,-5,-1,-5
14:48:07.865709,-4,0,-3,2,6,1,-4,-1
14:48:07.880700,-6,-1,-2,0,-1,-3,-3,-7
14:48:07.881697,-1,0,-3,5,-1,0,-2,0
14:48:07.903683,-1,0,0,-1,5,-2,0,0
14:48:07.903683,-2,-2,1,1,-4,0,-1,0
14:48:07.918673,2,-5,0,-2,-6,-3,0,-2
14:48:07.925670,-7,-4,-2,-2,-3,-4,-6,-8
14:48:07.942661,0,0,-3,0,0,-2,2,-1
14:48:07.948658,0,1,1,-3,-1,0,-4,-2
14:48:07.963646,0,1,0,-3,-2,-1,2,1
14:48:07.963646,3,-1,-4,1,-4,1,1,-4
14:48:07.978640,-1,-2,0,1,12,1,-4,1
14:48:07.985635,-2,-3,1,3,6,0,-1,2
14:48:08.000626,-5,-1,-5,3,6,-6,-6,-6
14:48:08.008620,-1,-5,-2,1,-4,-3,-4,0
14:48:08.023609,-5,-3,-2,1,9,-3,-2,-2
14:48:08.023609,-2,1,-1,0,-1,0,1,2
14:48:08.038602,-5,0,0,-2,-3,-2,-3,-3
14:48:08.045596,-1,1,2,2,-2,-1,-1,1
14:48:08.060589,1,1,2,-1,-7,-1,-5,0
14:48:08.068582,-3,0,-1,2,2,-2,0,-1
14:48:08.083572,4,2,3,2,9,2,-2,-1
14:48:08.084574,-1,0,-2,-2,-6,2,1,2
14:48:08.098565,1,-1,1,1,1,-4,1,0
14:48:08.105559,1,1,0,-4,1,-1,-2,0
14:48:08.120551,0,-1,-1,-2,2,-1,1,1
14:48:08.128546,9,1,0,-2,-3,-2,-1,2
14:48:08.143534,-2,-3,-3,-3,-3,4,-1,-1
14:48:08.144537,-3,-4,-2,2,-4,-1,-1,-1
14:48:08.158527,-1,-3,-1,0,16,7,-3,-2
14:48:08.166522,4,2,0,-14,-18,-3,0,5
14:48:08.180514,-4,-3,-2,5,8,2,-1,-3
14:48:08.188506,0,-3,-2,-1,0,-1,3,3
14:48:08.203502,3,1,0,-2,2,-1,3,1
14:48:08.203502,0,-3,-2,-3,-12,-2,0,-1
14:48:08.218488,11,0,0,-1,4,-3,-3,3
14:48:08.226486,-1,1,-1,2,3,3,4,0
14:48:08.242474,0,-1,1,-14,3,1,2,0
14:48:08.248472,-3,-4,-3,3,-1,-5,-6,-3
14:48:08.263462,0,-1,-1,-3,0,-2,-1,-2
14:48:08.264460,-8,-7,-4,-6,-4,-1,-5,-6
14:48:08.278454,-5,1,0,-5,3,-2,1,-2
14:48:08.285447,-4,-4,0,3,7,4,0,-6
14:48:08.301439,-2,1,3,-1,-5,-1,-3,-1
14:48:08.309435,-2,0,-2,2,0,-2,1,-1
14:48:08.323426,2,3,2,0,0,-1,-2,1
14:48:08.324423,1,2,-1,-1,1,-1,2,1
14:48:08.338414,-9,-7,0,-5,-4,-1,-2,-4
14:48:08.353404,-4,0,-2,2,7,0,-3,-3
14:48:08.361401,2,2,1,-1,-6,-2,-2,-6
14:48:08.368395,-2,-1,1,1,6,1,-1,0
14:48:08.383388,-1,0,-1,0,1,1,1,1
14:48:08.384387,6,1,-2,-5,-4,1,0,1
14:48:08.398379,0,0,0,-3,-2,-3,0,-3
14:48:08.406374,2,1,-1,-2,-3,3,2,1
14:48:08.421365,-6,3,1,3,7,3,2,-3
14:48:08.428361,1,0,-2,-20,-26,-2,0,-2
14:48:08.443352,8,1,-1,5,3,0,0,10
14:48:08.444349,3,0,2,0,3,3,-2,-3
14:48:08.459339,-2,-1,-2,-2,-3,-3,-3,0
14:48:08.466335,0,1,2,-1,2,1,0,0
14:48:08.481328,-3,-1,-1,-5,-10,-1,0,-3
14:48:08.488323,0,4,-2,-6,-1,2,-1,-2
14:48:08.503314,1,2,2,5,7,1,1,1
14:48:08.504313,-9,-4,-2,2,-4,-2,-2,-5
14:48:08.518305,0,-2,-3,-3,-4,-3,-2,-2
14:48:08.526300,1,-2,-1,-12,-12,-4,-1,0
14:48:08.542287,-4,1,1,8,3,-5,-4,-2
14:48:08.548286,-1,-4,-2,1,1,0,-1,-3
14:48:08.563277,-6,-5,0,2,0,-1,-1,-6
14:48:08.564273,-2,3,-1,-4,-5,-3,-1,-2
14:48:08.578268,0,0,2,-3,-5,-3,-1,-1
14:48:08.586260,-4,-4,-4,-2,2,-4,-1,-4
14:48:08.601255,-1,0,0,-4,-1,1,2,-1
14:48:08.609249,-9,-2,0,0,-2,-4,-9,-7
14:48:08.624236,-1,0,0,-3,1,-1,2,1
14:48:08.625236,-3,1,-4,-1,-1,5,-2,0
14:48:08.638228,2,-2,-2,0,-2,-1,-5,0
14:48:08.646226,3,1,1,2,9,-1,-1,-3
14:48:08.661215,1,2,0,0,1,2,1,0
14:48:08.668212,1,-2,-3,1,0,-1,0,1
14:48:08.683202,7,-1,-2,-4,-3,-5,-2,1
14:48:08.684201,-2,-3,2,1,4,1,-3,-2
14:48:08.698193,-3,-1,-3,-7,-17,-3,-2,-2
14:48:08.706186,-1,0,0,1,4,-3,-2,-2
14:48:08.721176,-5,-1,0,9,16,2,1,1
14:48:08.728174,-4,-4,-7,-4,-4,-10,-7,-6
14:48:08.743163,-2,-5,0,-2,-1,-3,-3,-2
14:48:08.744163,-4,-1,1,-5,-11,-1,-2,-1
14:48:08.759153,0,-1,1,2,4,5,0,1
14:48:08.766151,1,-1,-4,1,3,1,2,2
14:48:08.781142,-1,-3,0,0,2,6,1,-3
14:48:08.788140,8,-1,2,0,4,1,2,4
14:48:08.803128,-3,-2,1,0,0,-4,-4,-4
14:48:08.804127,-1,0,1,-2,1,-2,-3,1
14:48:08.818119,10,4,0,1,3,7,3,6
14:48:08.826111,-5,0,0,1,-1,-7,-4,-6
14:48:08.841102,1,-3,-2,1,0,2,0,0
14:48:08.848100,-3,-1,-2,-4,-1,1,2,1
14:48:08.863091,-2,0,-2,-1,-8,-8,-8,-4
14:48:08.879082,5,-1,2,3,3,-1,0,2
14:48:08.886077,0,-3,-3,-4,-6,-3,-3,-4
14:48:08.886077,-4,-2,-3,-5,0,-3,1,0
14:48:08.901067,-1,1,0,1,6,-3,-2,0
14:48:08.909064,-8,0,1,-3,0,2,0,0
14:48:08.923053,0,2,1,1,-4,-4,1,1
14:48:08.931049,1,-2,-3,-2,-11,0,1,-2
14:48:08.946036,-2,-5,-3,-6,0,0,-1,-2
14:48:08.947037,0,3,-1,0,0,8,3,2
14:48:08.961027,2,-4,3,0,-3,-8,-5,0
14:48:08.968025,-1,0,-1,-2,-2,-5,-1,-4
14:48:08.984016,5,-3,3,-3,5,0,4,3
14:48:08.991012,-3,0,3,6,8,5,3,0
14:48:09.005999,2,-1,-2,0,-1,0,0,0
14:48:09.005999,0,0,0,-1,0,-4,0,1
14:48:09.020993,3,-2,-1,1,8,0,-2,0
14:48:09.028985,-5,-1,-4,-3,-5,-5,-4,-1
14:48:09.043979,-3,0,-2,1,2,0,-4,0
14:48:09.050974,2,1,-1,3,-5,-6,1,2
14:48:09.065965,-1,-5,0,-3,-4,2,1,-3
14:48:09.065965,1,1,-1,-1,-3,-3,1,-5
14:48:09.080956,1,-3,-4,-2,0,0,0,1
14:48:09.087948,3,-1,0,-1,7,0,-5,-1
14:48:09.102941,6,1,-3,0,-7,-4,1,5
14:48:09.110937,-1,-3,0,-6,0,4,-1,2
14:48:09.125928,1,1,0,3,2,-3,-4,-6
14:48:09.126926,-1,-1,-2,3,-3,3,5,1
14:48:09.141917,-5,2,-1,2,5,0,-4,-5
14:48:09.148912,0,-1,-1,0,-4,-2,0,-1
14:48:09.163903,-3,-1,-1,-13,-12,-1,-5,-5
14:48:09.170900,0,-3,-1,27,5,-8,-4,-3
14:48:09.185888,-4,-4,-1,3,-1,3,-1,-1
14:48:09.186890,1,-2,-1,0,-4,-3,-1,0
14:48:09.200882,0,-1,-1,-1,1,1,-3,-2
14:48:09.208874,0,0,-2,-3,-5,1,-1,3
14:48:09.223864,-6,-2,2,0,-1,0,0,-1
14:48:09.230862,-7,-2,-1,-2,-2,0,-1,-5
14:48:09.245854,4,6,4,5,3,2,7,8
14:48:09.246850,-2,-3,-2,-1,3,-3,-2,1
14:48:09.260844,0,-2,-1,-2,-1,1,1,-1
14:48:09.268836,-4,0,1,0,0,-3,-4,-5
14:48:09.283829,0,0,-1,-3,-8,1,1,1
14:48:09.298820,-1,-2,0,-2,5,-1,-5,-2
14:48:09.305816,0,-2,-1,-2,-6,0,-2,0
14:48:09.306813,-1,0,-1,-1,1,2,0,1
14:48:09.320807,-7,-6,-3,3,7,-5,-3,-4
14:48:09.328802,2,1,-4,0,1,0,2,0
14:48:09.343793,0,1,-2,-3,0,0,0,0
14:48:09.350789,-4,-2,-2,-2,0,2,2,1
14:48:09.365779,-3,0,-2,-1,-6,-6,-4,-4
14:48:09.366779,2,-2,-2,1,-1,3,1,1
14:48:09.380770,0,1,1,-2,1,1,4,2
14:48:09.387765,-3,0,1,-3,0,-1,2,-1
14:48:09.403756,-1,-4,-3,-1,-2,-1,-2,-1
14:48:09.410751,3,-3,1,-1,0,1,-2,-1
14:48:09.425741,-1,-3,-2,-4,-7,-2,0,-4
14:48:09.426739,-7,-2,1,2,-11,-2,2,-1
14:48:09.441731,-4,0,3,0,3,-3,-4,-4
14:48:09.448728,0,-1,-1,-3,-2,-2,0,0
14:48:09.463716,-1,-2,1,3,1,4,0,-3
14:48:09.470714,-5,-3,-3,-27,-32,-6,-6,-5
14:48:09.485702,-4,-2,-3,3,-1,-6,-6,-3
14:48:09.486701,2,-1,2,1,0,0,2,3
14:48:09.508690,0,-2,1,1,0,-3,-4,-5
14:48:09.509691,-2,-4,-2,-3,-4,-2,1,2
14:48:09.523682,2,1,3,0,4,1,3,1
14:48:09.530679,-4,-3,-4,-3,-4,1,-2,3
14:48:09.545667,0,-3,-1,2,8,0,0,1
14:48:09.546667,2,1,0,-3,-1,-1,2,-1
14:48:09.560658,-6,0,0,-1,1,3,1,-5
14:48:09.568650,-2,1,1,2,2,-3,-4,-3
14:48:09.583644,-1,-4,-3,-4,-1,-1,-4,-5
14:48:09.592639,-2,-2,1,-1,-4,-3,-3,-4
14:48:09.613623,-2,-2,-2,0,-1,2,0,-3
14:48:09.613623,-5,-1,-1,-21,-18,0,1,-2
14:48:09.620623,8,-4,-1,5,5,1,1,3
14:48:09.628615,0,-3,0,3,-2,-2,-1,-4
14:48:09.643608,-2,-1,1,-1,2,-3,-8,-8
14:48:09.650601,1,0,0,3,-4,-2,3,1
14:48:09.665593,2,-1,-3,-1,-1,0,-1,3
14:48:09.666590,-3,0,-2,-4,0,-5,-3,-3
14:48:09.688578,1,-4,-1,1,2,1,-3,-2
14:48:09.688578,-3,1,-3,-1,-6,0,0,-1
14:48:09.703569,1,0,-1,-1,-2,1,2,-3
14:48:09.710565,-1,-1,0,4,-3,0,0,0
14:48:09.726553,6,-1,1,-21,-37,-3,-2,2
14:48:09.726553,3,-2,2,10,10,10,1,4
14:48:09.741545,-4,-2,-1,1,-6,-3,-2,-3
14:48:09.748542,-2,0,-2,-7,0,2,1,-2
14:48:09.763533,-1,0,0,4,-2,-1,0,0
14:48:09.770526,-2,0,-1,-2,-1,-2,-2,-1
14:48:09.785519,-2,-3,-1,-6,-8,-9,-3,-4
14:48:09.786518,-1,-2,0,1,1,1,1,0
14:48:09.809502,2,-1,-2,-3,-2,-3,-1,-2
14:48:09.809502,-3,-1,-1,2,-6,-6,-1,1
14:48:09.824493,-4,-3,0,-3,0,2,-4,0
14:48:09.830491,-3,1,-1,8,9,5,-3,1
14:48:09.845478,-5,-3,-3,-7,-17,-11,-2,-4
14:48:09.853477,7,1,-2,2,5,-1,-1,4
14:48:09.868464,1,6,0,-2,0,2,2,-4
14:48:09.869464,-1,0,0,-7,1,0,0,-4
14:48:09.883458,2,-1,0,6,-1,-1,2,0
14:48:09.892453,-3,1,-3,-1,-4,1,-4,-3
14:48:09.906444,-4,-9,-2,-2,1,-2,2,-1
14:48:09.913439,-3,-1,1,0,-3,-2,2,-1
14:48:09.928430,-2,-5,-1,-1,6,3,-1,0
14:48:09.929429,3,2,1,0,-6,-5,-3,-3
14:48:09.943419,-3,-2,0,-5,6,1,-5,-3
14:48:09.951419,0,1,-3,-1,-4,-5,-3,-2
14:48:09.966403,3,-1,-2,-1,2,0,1,2
14:48:09.973402,-2,-1,1,-4,0,1,-4,-4
14:48:09.988393,1,1,-2,0,-3,-2,1,-2
14:48:09.989395,-1,-1,4,2,8,2,2,0
14:48:10.003384,-3,0,-1,-1,-2,-1,-3,2
14:48:10.011379,0,1,-2,2,0,-2,-3,-1
14:48:10.026370,-6,-4,-3,-4,-5,-1,1,-3
14:48:10.033365,-2,2,-2,-2,-1,-2,0,0
14:48:10.048356,-1,3,-1,-1,-8,-1,1,2
14:48:10.049352,-4,1,1,2,0,-3,-4,-1
14:48:10.063346,0,-3,-3,-3,-13,-1,-1,4
14:48:10.071340,0,-1,1,0,3,-3,3,-1
14:48:10.086330,-1,1,2,-1,0,-4,-1,0
14:48:10.093328,1,-4,-3,1,-7,-2,-3,-1
14:48:10.109315,5,2,0,0,0,0,-1,2
14:48:10.109315,-1,-2,-2,-20,-24,1,1,0
14:48:10.124307,0,1,2,9,11,1,-2,1
14:48:10.131301,-3,0,1,-1,-1,1,0,1
14:48:10.146295,-5,-3,1,0,-1,-3,-5,-5
14:48:10.153291,-5,-5,-1,0,-4,-3,0,-2
14:48:10.168282,-4,-1,0,-1,-4,2,-2,-1
14:48:10.169278,-2,-1,2,-2,0,-1,0,-5
14:48:10.183272,5,-2,0,1,4,-2,1,3
14:48:10.192271,-2,0,-3,0,-10,-3,-2,0
14:48:10.206258,0,1,3,0,8,3,-2,-4
14:48:10.213253,-5,-2,-2,-5,-6,-5,-2,-4
14:48:10.228244,1,-1,-3,0,2,1,-5,4
14:48:10.229241,1,1,0,-1,-1,-1,-2,-8
14:48:10.243235,0,-3,1,-1,5,6,2,2
14:48:10.251231,1,0,1,2,-2,-4,-4,-3
14:48:10.266221,-2,-2,-2,-3,0,3,-1,1
14:48:10.273214,-4,-1,-2,-2,-3,-2,0,0
14:48:10.288207,-1,3,0,2,3,0,-1,0
14:48:10.289207,2,4,-2,-5,-7,1,0,1
14:48:10.303197,4,-4,1,0,3,-3,-7,-2
14:48:10.311194,0,-3,-2,-1,1,1,-3,-3
14:48:10.326181,3,0,1,-1,-4,-1,-3,2
14:48:10.333179,-4,-4,-3,0,1,0,1,3
14:48:10.356162,-2,-3,-2,4,2,-2,1,0
14:48:10.356162,0,-1,0,-15,-26,-5,-3,-1
14:48:10.363160,0,-1,-1,2,6,2,-2,1
14:48:10.371155,-1,1,0,1,0,-1,0,0
14:48:10.386146,4,2,2,2,3,4,3,3
14:48:10.393142,-2,-3,-3,2,1,-2,-2,-2
14:48:10.409132,-3,1,1,-1,-4,-1,-1,-1
14:48:10.409132,0,0,2,2,-7,-2,-2,-1
14:48:10.423123,-1,3,-2,-3,2,-3,-3,-2
14:48:10.431118,-1,0,1,2,1,1,1,1
14:48:10.446107,-4,-2,-2,-3,2,-2,0,-2
14:48:10.453104,7,-1,-3,2,5,0,1,4
14:48:10.468096,4,0,1,2,-2,0,1,2
14:48:10.469093,2,-3,-4,-6,-8,-7,-2,-1
14:48:10.492079,-2,-1,-1,0,4,0,1,1
14:48:10.492079,-3,-5,-1,-4,-1,-5,-5,-3
14:48:10.506072,0,0,-1,3,7,0,-2,2
14:48:10.513068,1,-7,-2,-4,0,1,-1,3
14:48:10.528058,0,-1,0,-1,1,1,1,0
14:48:10.529055,2,2,-1,-1,-1,0,1,-1
14:48:10.544046,0,1,-1,-1,-2,-2,0,-2
14:48:10.551046,-1,-3,0,-1,0,0,-1,0
14:48:10.566035,-3,-3,-2,0,1,3,0,-5
14:48:10.573030,-1,1,-2,0,-6,-2,0,-2
14:48:10.588021,4,-1,-4,-3,1,-3,-5,3
14:48:10.589021,4,-3,-1,-3,0,3,2,0
14:48:10.604009,0,1,-2,0,5,-1,-1,-3
14:48:10.611007,1,-2,-1,1,1,-5,-4,1
14:48:10.625998,-2,-1,-2,-6,-5,-3,1,-3
14:48:10.632991,0,-3,0,-4,1,-3,-1,0
14:48:10.647984,0,-1,1,-3,-4,-1,-3,0
14:48:10.648981,0,0,-1,-1,-1,-3,-4,-3
14:48:10.670970,-1,1,2,1,-1,-2,-1,2
14:48:10.670970,0,2,1,1,4,0,1,-2
14:48:10.685961,1,0,1,2,-2,-2,0,0
14:48:10.693952,1,2,1,0,-1,-4,-2,-3
14:48:10.708944,-1,-1,-1,-2,-1,0,-3,-3
14:48:10.708944,-4,-1,-3,0,3,2,1,0
14:48:10.723936,-5,-4,-1,-2,-2,-3,2,0
14:48:10.730932,-3,-1,0,-1,1,1,-1,-6
14:48:10.745923,-1,3,-1,-1,1,1,1,1
14:48:10.752919,2,-1,0,2,1,-2,1,2
14:48:10.768908,-1,0,-2,-3,3,-3,-6,-2
14:48:10.775905,-1,4,3,-2,-1,1,-1,-3
14:48:10.791892,-2,0,3,3,0,-6,-2,-2
14:48:10.792892,-4,0,-2,3,2,-5,0,-2
14:48:10.805886,-1,-3,-1,0,-5,-6,-3,1
14:48:10.813881,-5,-1,1,3,6,4,3,0
14:48:10.828871,3,-3,-5,0,-1,-7,-2,-2
14:48:10.835868,-5,-2,0,0,-3,1,1,-1
14:48:10.850858,0,1,-4,1,-1,-2,-2,4
14:48:10.851854,-5,0,-3,-3,3,2,-1,-2
14:48:10.865849,-2,-5,-2,-2,-4,-4,0,-3
14:48:10.873844,4,0,0,-1,2,2,-3,3
14:48:10.888835,-1,-2,-4,-1,-6,-7,-1,-5
14:48:10.895830,-2,1,-2,1,2,3,2,0
14:48:10.910821,2,-1,-4,-2,2,-2,-1,0
14:48:10.911820,-5,-1,-1,-1,0,-3,0,-2
14:48:10.925811,6,-1,0,-1,1,2,-3,7
14:48:10.933803,1,-1,-1,0,4,0,-1,0
14:48:10.948797,-2,-4,-4,1,-5,-1,-2,-3
14:48:10.955793,0,-1,-3,-3,2,6,1,1
14:48:10.970780,0,-1,-2,1,-2,-4,0,-1
14:48:10.971786,0,1,-2,-2,-3,-3,-1,3
14:48:10.985774,-5,-5,-3,-1,-6,-2,0,-3
14:48:10.993767,-4,-1,0,0,-1,-6,-4,-2
14:48:11.008758,0,-1,1,2,6,4,-1,-2
14:48:11.015756,-5,-2,0,-1,-2,4,1,-5
14:48:11.030746,0,-2,-2,1,1,-2,-2,-2
14:48:11.031746,0,0,0,4,-2,-2,-2,-1
14:48:11.045737,0,-3,-3,0,-3,3,2,2
14:48:11.053730,1,-4,-3,3,-3,-4,-6,0
14:48:11.068720,-5,-2,2,-2,-4,-5,-3,-5
14:48:11.075716,-3,0,0,-2,-1,-5,-2,-2
14:48:11.091707,1,-2,1,2,0,-2,4,5
14:48:11.092705,0,1,0,4,6,10,4,5
14:48:11.105700,2,-1,-4,0,-3,-6,-5,-1
14:48:11.113695,-4,-2,-4,-4,-10,-6,-5,-7
14:48:11.135682,-2,-1,-1,-1,1,0,2,0
14:48:11.136678,-2,-1,-6,-3,-1,-3,-5,-2
14:48:11.150672,0,3,-2,-1,-2,-1,-5,-2
14:48:11.151671,-2,-2,0,-4,-6,-3,0,-3
14:48:11.165662,-3,0,1,0,4,-1,-1,-2
14:48:11.173655,-3,-2,-5,-1,-5,-8,-7,-13
14:48:11.195644,-3,-4,-1,-4,-2,-4,-1,-4
14:48:11.196642,-1,-5,-3,2,2,1,-2,0
14:48:11.210635,-1,-2,-2,-2,-2,-4,-2,-1
14:48:11.211633,4,4,3,5,0,7,5,6
14:48:11.225623,-1,-2,-3,2,4,-2,-1,-3
14:48:11.233621,1,0,3,-1,1,-3,0,1
14:48:11.248612,0,0,1,-1,7,4,-1,1
14:48:11.255607,-1,-2,0,-2,-3,-1,0,-5
14:48:11.270598,-2,1,-3,-2,3,5,1,-5
14:48:11.271595,5,1,-4,-2,-4,-1,0,2
14:48:11.285588,-6,-1,0,1,4,2,0,-2
14:48:11.293583,1,0,-1,0,3,-7,0,-1
14:48:11.308572,-1,1,0,0,-1,-3,-1,0
14:48:11.315569,1,-2,0,1,-2,-1,0,-1
14:48:11.330560,2,-2,0,3,1,3,2,3
14:48:11.331559,-1,0,0,-1,-10,-1,0,2
14:48:11.346551,1,-3,-3,-1,3,0,4,0
14:48:11.353543,-7,-2,-1,-1,-4,0,-1,-4
14:48:11.368537,-3,-3,2,0,4,1,-2,-8
14:48:11.376530,1,2,-1,1,4,4,-1,-1
14:48:11.391520,-3,-4,-2,-2,-14,-4,-3,-3
14:48:11.392520,-1,0,0,1,4,3,-4,-3
14:48:11.405512,1,-2,-1,-5,-4,-4,0,-4
14:48:11.413509,-1,0,-1,-3,-2,-2,0,-5
14:48:11.428500,2,5,3,3,-1,-2,-3,-2
14:48:11.435494,0,1,0,0,1,1,-2,0
14:48:11.450486,3,2,0,2,7,6,2,1
14:48:11.451486,-5,-7,-4,-3,1,0,1,1
14:48:11.466473,8,-3,-2,0,2,-4,-3,0
14:48:11.473472,0,0,1,-3,-3,5,1,1
14:48:11.488463,-1,-1,-1,-2,-1,1,-1,-3
14:48:11.496455,-4,-5,-2,1,0,1,0,-2
14:48:11.511445,-1,-1,-4,-1,0,-1,-6,0
14:48:11.511445,-1,-2,0,0,-1,-4,1,-1
14:48:11.526440,-3,-1,-1,-1,-9,-3,-2,-5
14:48:11.533435,-4,-1,-6,-3,-1,-1,-1,-6
14:48:11.548425,1,2,2,-2,-1,-1,-3,-2
14:48:11.555418,-1,0,-1,0,2,-2,-2,-3
14:48:11.570411,-2,1,-1,1,1,2,0,2
14:48:11.571409,1,-1,0,-1,4,-4,-4,0
14:48:11.586403,-1,-1,1,1,0,0,-3,2
14:48:11.593398,0,-1,-1,-5,3,-1,2,3
14:48:11.609385,-1,-4,-1,-1,-4,-3,-2,-4
14:48:11.616384,0,-2,-5,0,-1,-1,-5,-3
14:48:11.630377,0,1,1,-4,-7,3,-2,0
14:48:11.631374,2,-2,-2,4,-2,-2,-4,0
14:48:11.653361,3,-4,0,-2,1,-1,-1,-1
14:48:11.654360,12,2,-1,1,2,2,-2,4
14:48:11.668351,0,0,-1,1,1,1,0,0
14:48:11.676344,5,-1,0,-1,-2,-1,2,3
14:48:11.692334,-2,0,-4,-2,-4,-2,0,-1
14:48:11.698332,2,1,-3,1,0,1,-4,-4
14:48:11.713323,2,1,-1,4,-3,-1,0,2
14:48:11.714323,-6,-5,-1,-5,3,1,2,-1
14:48:11.728314,-4,-4,0,-1,0,-2,-5,-5
14:48:11.736309,5,3,2,1,-2,-6,-2,11
14:48:11.751300,-4,-2,0,-1,3,1,0,0
14:48:11.759295,-1,-2,-1,-1,-4,-2,-3,-2
14:48:11.773286,-1,-1,1,-1,1,-1,0,0
14:48:11.774282,-1,-4,-2,-1,-2,-3,1,-1
14:48:11.788276,1,-3,-1,2,-4,-1,-1,1
14:48:11.796271,-3,2,-2,3,1,-2,-3,-4
14:48:11.818258,8,3,-2,-2,-3,-3,-3,1
14:48:11.819254,-5,1,1,3,2,0,0,0
14:48:11.833249,3,0,1,-1,-5,-7,-2,6
14:48:11.834246,-1,0,-2,-2,-12,-4,-1,0
14:48:11.848239,0,-2,2,5,4,0,-1,-2
14:48:11.856232,-1,2,-3,-2,-3,-3,-5,-2
14:48:11.871226,-5,-1,-1,-3,-2,-2,0,-1
14:48:11.878221,-2,-4,1,-1,-2,2,1,6
14:48:11.893210,0,-1,-5,0,-4,-8,-3,0
14:48:11.894209,2,1,0,-1,2,0,-5,-5
14:48:11.909202,-2,-3,0,-4,-3,-5,0,-1
14:48:11.916195,1,1,0,2,-4,-2,-4,-1
14:48:11.931188,-1,-1,0,0,0,-4,0,-1
14:48:11.938183,0,2,2,0,1,4,1,-1
14:48:11.953175,-1,-1,-2,0,-4,1,0,-4
14:48:11.954171,-5,-3,-2,0,-10,-3,-4,-5
14:48:11.969161,1,0,1,1,6,-2,0,1
14:48:11.976161,2,-3,0,-3,-2,-2,-1,-4
14:48:11.991148,-2,0,-2,-2,2,-3,-1,-1
14:48:11.998146,-5,2,-3,-1,-1,0,0,-2
14:48:12.013137,-3,2,-1,-4,-4,1,-1,-3
14:48:12.021130,-6,-2,-1,3,5,8,0,2
14:48:12.028130,1,0,1,0,2,1,3,3
14:48:12.036123,-1,-2,-1,1,0,0,3,0
14:48:12.051114,1,1,-1,-5,-8,-6,-6,-2
14:48:12.059109,1,2,-1,3,-7,-1,-4,-2
14:48:12.073099,-3,-2,-4,-6,2,1,-1,-3
14:48:12.074097,4,4,3,6,6,8,2,5
14:48:12.088090,-4,1,0,-2,3,1,3,-1
14:48:12.096085,-4,-1,-1,-4,-6,-5,-5,-4
14:48:12.111077,0,-2,-1,0,2,1,-2,2
14:48:12.118072,-5,-3,0,-1,-2,-2,-3,-3
14:48:12.133063,-4,-2,-3,-2,0,1,0,0
14:48:12.134060,0,-1,-1,-1,-2,0,1,2
14:48:12.148052,3,-1,-4,-2,-5,-3,-1,4
14:48:12.156048,0,1,-1,2,3,0,0,0
14:48:12.171040,-3,-3,0,-6,-13,0,-2,-4
14:48:12.179033,-5,1,-2,-2,2,-1,0,-1
14:48:12.193026,0,2,1,-2,0,-3,0,0
14:48:12.194023,-2,0,-1,-1,-1,-1,-2,0
14:48:12.209014,8,0,0,0,3,3,4,6
14:48:12.216011,-2,-1,0,-1,-4,1,0,0
14:48:12.231002,0,-2,-2,-1,-8,-4,-3,-1
14:48:12.237996,0,-1,-3,-4,-3,0,-1,4
14:48:12.252988,-3,1,-2,0,1,-2,0,1
14:48:12.253986,-1,-3,-2,-1,-2,-4,-3,-3
14:48:12.268982,0,-5,-5,-2,-3,-1,1,1
14:48:12.275974,0,-2,-1,-1,-3,0,-2,-2
14:48:12.291962,2,-5,1,3,13,7,4,-1
14:48:12.297957,0,-3,-2,-1,-3,-1,0,2
14:48:12.312951,3,-1,-3,-2,-1,0,-1,6
14:48:12.313948,-2,1,-1,1,-1,2,-2,-3
14:48:12.328942,-1,0,4,0,1,-1,-1,-3
