timestamp,emg1,emg2,emg3,emg4,emg5,emg6,emg7,emg8
18:53:45.171864,-1,0,-2,0,-2,-2,-4,-2
18:53:45.184858,3,4,-1,0,0,1,16,5
18:53:45.185855,1,-1,-2,-1,0,0,-21,-4
18:53:45.208841,-1,-2,-1,-4,-4,-2,-1,-8
18:53:45.209841,-6,0,-2,-2,-5,-2,-10,-9
18:53:45.222841,-3,0,-1,0,0,0,2,2
18:53:45.229827,-1,-1,-4,-2,0,-5,-3,-6
18:53:45.244818,-4,-1,-1,-3,-2,-3,-8,-4
18:53:45.244818,-6,-3,-3,-1,-1,1,-3,2
18:53:45.266806,-4,-1,-1,-3,0,-3,6,-11
18:53:45.267803,37,13,4,-1,1,4,10,11
18:53:45.282795,-7,-4,-3,2,1,1,-13,-3
18:53:45.289789,-2,1,-1,-2,-1,-4,2,0
18:53:45.304782,-5,1,1,-1,-1,4,-3,0
18:53:45.305779,0,-1,-1,-2,-3,-1,-3,-2
18:53:45.326769,4,-1,-2,-1,0,2,9,9
18:53:45.327766,-4,-1,-1,-1,-2,-3,0,-2
18:53:45.342758,-3,-2,-3,-3,-2,0,-8,-7
18:53:45.357754,-7,-4,-3,0,-3,0,-2,2
18:53:45.364744,2,-1,0,3,-1,-3,-9,7
18:53:45.365742,-6,-2,-5,-3,-1,-5,-5,-7
18:53:45.386732,-4,-1,-3,-2,-5,-1,-8,9
18:53:45.387730,1,-2,-1,-1,-2,-6,10,-11
18:53:45.402721,0,-1,3,0,-1,0,-1,-5
18:53:45.409715,5,2,0,-1,-1,0,2,2
18:53:45.424707,-1,-4,-1,2,0,-3,-2,-3
18:53:45.425705,-2,-2,0,-1,0,-4,-18,-2
18:53:45.446695,-7,-6,-4,-1,2,1,2,-6
18:53:45.447692,4,0,-1,2,-3,1,-1,-1
18:53:45.462682,-6,0,-1,-1,-2,-2,0,-3
18:53:45.469705,-4,-2,-1,-1,1,-1,-5,-8
18:53:45.484668,-6,-4,-2,-4,-5,-7,-5,-8
18:53:45.485667,-6,0,1,-2,0,-1,5,-2
18:53:45.506661,-2,1,0,1,-3,0,-2,0
18:53:45.507656,-1,-2,-2,-1,-2,-4,1,-2
18:53:45.522646,-4,-1,-3,0,-2,-4,-14,-15
18:53:45.529653,2,1,0,-1,0,1,-1,-2
18:53:45.544631,1,-1,-1,-3,0,0,-3,-1
18:53:45.545630,-14,-3,-3,-1,-1,-1,-9,-7
18:53:45.574613,7,4,1,1,3,5,8,6
18:53:45.575613,-5,-2,-1,1,2,-4,-2,-4
18:53:45.597600,-1,-2,-3,-1,0,-3,3,-2
18:53:45.597600,-4,-6,0,-1,5,1,12,22
18:53:45.604594,2,0,1,-1,1,1,-8,-1
18:53:45.605595,-6,-1,-5,-1,-2,-2,-7,-10
18:53:45.627581,-5,-2,-2,-5,-3,-1,-3,-6
18:53:45.627581,-5,-1,1,0,2,-2,-1,-2
18:53:45.649566,-4,-2,-1,0,-3,-4,-12,-10
18:53:45.650567,1,1,0,0,-1,-3,0,6
18:53:45.664557,-2,-3,-3,0,0,0,2,-2
18:53:45.665557,2,0,2,-2,3,-4,-2,-1
18:53:45.687543,2,-1,1,0,2,2,4,3
18:53:45.687543,17,4,-1,-2,1,0,-7,-3
18:53:45.709530,4,-1,-1,0,1,0,-13,6
18:53:45.710529,-6,-3,1,-3,-1,-4,0,-8
18:53:45.724519,1,0,2,-1,2,-1,-1,4
18:53:45.725520,0,-1,-1,-1,-1,-2,-2,-4
18:53:45.747506,-1,-2,-2,-1,1,2,9,3
18:53:45.747506,5,2,1,2,1,3,1,9
18:53:45.769491,-4,0,-1,3,1,2,4,1
18:53:45.770492,12,5,1,1,3,-1,5,2
18:53:45.784482,-5,-2,-2,-1,-2,-3,-3,2
18:53:45.785483,11,6,1,-4,-1,0,-9,1
18:53:45.807470,-2,-2,1,0,3,-1,3,-2
18:53:45.807470,3,-1,-1,0,-2,0,0,-4
18:53:45.829455,-2,1,1,1,3,1,3,4
18:53:45.830455,-2,1,-1,-1,-3,-4,-17,0
18:53:45.844449,-1,1,-1,0,-1,-3,2,-1
18:53:45.845446,4,2,-1,2,0,1,-12,5
18:53:45.867432,9,-1,-1,1,2,-1,-11,-1
18:53:45.867432,-4,-4,-2,-3,-1,0,5,1
18:53:45.889452,-2,0,-1,-3,-2,0,2,4
18:53:45.890417,-3,-1,-2,0,-1,-1,-3,-3
18:53:45.904450,-6,-4,0,1,1,-2,-5,0
18:53:45.905408,-8,1,-5,-1,-2,-4,-9,-7
18:53:45.927395,-4,-2,-3,1,-4,-3,-1,-4
18:53:45.927395,-1,-3,-1,-1,0,0,-1,-3
18:53:45.949379,2,-3,0,-1,-4,1,-4,-1
18:53:45.950380,-4,0,2,-1,2,-4,15,-1
18:53:45.964375,-4,-3,0,1,2,3,3,-6
18:53:45.965371,1,-4,-3,1,-2,0,2,0
18:53:45.987358,0,0,-1,0,-3,1,6,2
18:53:45.987358,-1,-1,3,-3,1,-4,-13,-9
18:53:46.009346,6,-1,-4,-4,0,-1,-1,-6
18:53:46.010342,-5,-1,-1,2,2,0,3,-4
18:53:46.024338,-3,1,1,0,-4,-3,-2,-4
18:53:46.025333,-4,-1,1,-1,0,-1,-15,-4
18:53:46.047320,0,0,-5,-5,-2,-5,11,9
18:53:46.047320,-3,-6,-1,3,-1,1,-1,0
18:53:46.069313,-3,-2,2,-1,-3,0,-1,-1
18:53:46.070305,-3,0,-1,-5,-2,-2,-3,-4
18:53:46.092293,1,-3,-3,-3,-1,0,-6,0
18:53:46.093290,2,1,-1,0,1,-3,0,-5
18:53:46.107283,-1,-2,2,4,1,-1,1,-1
18:53:46.107283,-2,-2,-1,-2,0,-1,-1,0
18:53:46.130269,0,0,0,0,-1,-1,1,-1
18:53:46.130269,-2,-2,0,0,-3,-3,0,-1
18:53:46.144263,0,0,-2,0,-1,2,4,-2
18:53:46.145259,-4,-1,1,1,-4,-1,-4,-5
18:53:46.167246,2,-2,-4,-3,-3,-3,-11,-1
18:53:46.168245,10,2,2,1,-1,3,-3,10
18:53:46.189231,-2,2,0,0,-4,1,7,-4
18:53:46.190231,-8,-7,-3,-5,-3,1,-6,-4
18:53:46.204231,-2,-1,-1,-4,1,-3,-3,5
18:53:46.205232,4,1,1,3,3,-1,7,4
18:53:46.227209,7,2,1,-5,0,2,-4,0
18:53:46.228208,-6,-1,0,-1,-2,-1,-2,-4
18:53:46.250197,-7,-2,-5,-1,0,-5,-3,-4
18:53:46.250197,-5,-2,-1,-1,-2,0,8,-5
18:53:46.265188,14,11,-2,-1,1,1,-4,7
18:53:46.265188,8,1,-1,1,1,1,1,6
18:53:46.287172,-8,-6,-3,1,0,-2,-10,-16
18:53:46.288171,6,2,2,0,2,8,19,10
18:53:46.310160,-5,-2,-1,-4,-4,-3,-5,-13
18:53:46.310160,2,-2,-2,1,-1,-1,-15,-1
18:53:46.325148,0,1,2,5,3,-2,19,12
18:53:46.333143,-4,2,-1,1,0,1,-2,-5
18:53:46.348137,-2,0,1,-1,2,0,2,-2
18:53:46.349133,4,-1,-1,-2,-1,-4,2,5
18:53:46.370123,-2,-1,-1,-2,-2,-2,-16,10
18:53:46.371120,-4,-2,0,0,-2,5,4,0
18:53:46.385114,12,4,0,0,0,-2,-12,4
18:53:46.386113,3,0,1,1,2,-1,2,-5
18:53:46.407097,2,0,-1,0,-1,0,7,4
18:53:46.408098,0,-1,-2,-2,2,-1,0,-1
18:53:46.431082,-2,1,-1,-1,0,-2,-2,0
18:53:46.431082,17,6,3,3,2,1,12,10
18:53:46.445076,-3,-1,-1,1,-4,1,-1,-5
18:53:46.446076,-1,0,-2,-1,0,-5,-3,1
18:53:46.468062,-4,0,-1,0,-3,-1,-9,-1
18:53:46.468062,-12,-5,-1,1,1,4,4,0
18:53:46.490049,-2,-1,-1,-3,0,0,-30,-1
18:53:46.491045,-1,0,1,0,0,-4,5,2
18:53:46.505039,1,0,0,1,1,-3,-2,-6
18:53:46.506037,-3,-8,-2,-2,-1,-4,-4,-5
18:53:46.527023,1,2,-2,1,4,0,-1,-3
18:53:46.528022,0,1,-1,0,-1,-1,-3,0
18:53:46.550008,3,1,2,0,-2,1,-1,1
18:53:46.551011,-4,1,-3,-1,0,2,-10,-4
18:53:46.565002,3,2,-2,0,-1,1,0,-3
18:53:46.572994,-3,-2,-1,-2,2,3,-25,-6
18:53:46.586987,8,3,0,3,-1,4,15,8
18:53:46.587986,-1,-3,-1,-1,-1,-3,1,-3
18:53:46.609971,-4,1,2,3,1,6,9,6
18:53:46.610972,1,0,-1,0,1,1,-3,-3
18:53:46.632957,-5,-6,-4,-2,-3,2,1,-1
18:53:46.632957,-2,-2,-2,0,1,1,-1,-2
18:53:46.647947,-1,-1,0,1,0,-2,-1,-1
18:53:46.647947,17,11,0,0,1,2,-9,5
18:53:46.677929,5,5,2,-2,3,0,3,0
18:53:46.677929,0,-1,1,0,3,3,5,7
18:53:46.692919,-2,-3,-1,-1,-4,-4,10,-5
18:53:46.692919,-1,2,-4,-1,-2,0,-11,2
18:53:46.707910,-1,0,-2,-3,-5,-3,-3,-4
18:53:46.707910,-4,0,-1,-3,-3,3,5,-3
18:53:46.729897,2,1,1,-2,3,0,-1,-2
18:53:46.730899,-2,-2,1,-1,-1,-3,-6,-4
18:53:46.752882,-5,-4,-2,-1,-1,-1,-4,-3
18:53:46.752882,-1,-4,-2,-1,2,0,0,-2
18:53:46.767875,-3,-1,-3,0,1,-2,0,-1
18:53:46.767875,-1,0,0,0,2,-2,-1,0
18:53:46.790861,-2,-2,-1,1,2,0,-3,1
18:53:46.790861,-2,-1,-3,-4,-4,-2,-1,-1
18:53:46.812846,-2,-1,-1,1,0,2,1,-1
18:53:46.813848,-5,-4,-2,-3,-2,-3,1,-1
18:53:46.827836,-3,-2,-1,-1,-1,-5,-6,-4
18:53:46.827836,-8,-5,-3,0,-4,-3,-23,-11
18:53:46.849825,-1,-3,1,0,-5,-5,1,-1
18:53:46.850822,-1,1,-1,1,2,-1,4,13
18:53:46.872808,-1,-2,-1,-4,-1,-1,1,-5
18:53:46.873811,1,-1,-2,-1,-1,0,-3,-4
18:53:46.887801,8,4,4,4,4,11,4,5
18:53:46.888800,-3,0,-1,-1,1,-1,-1,1
18:53:46.909788,-8,-4,-6,-3,-5,-4,1,-11
18:53:46.910784,8,3,2,-2,2,3,0,17
18:53:46.932774,0,-4,2,1,1,1,2,0
18:53:46.933772,-1,-6,-3,0,-2,-2,0,-4
18:53:46.947762,-3,-1,-3,-1,-1,0,2,-1
18:53:46.947762,-3,-1,-1,0,1,0,-10,1
18:53:46.969751,-2,-3,-1,-3,1,-1,-4,-2
18:53:46.970750,0,-1,0,2,2,-1,2,-4
18:53:46.992737,0,1,-1,0,2,3,-2,0
18:53:46.992737,-2,-3,-4,0,-1,0,-2,1
18:53:47.007725,-9,-7,-1,-1,-2,-2,-1,-4
18:53:47.007725,4,2,2,1,2,-6,0,2
18:53:47.030710,-5,-2,1,-1,-4,-1,2,-1
18:53:47.030710,5,3,-1,-1,0,8,10,-1
18:53:47.052699,-2,-2,0,0,-4,1,1,4
18:53:47.053696,0,-3,1,-1,-2,1,3,1
18:53:47.067690,-3,-2,-1,-1,2,0,-2,-4
18:53:47.067690,0,-1,-3,0,-3,-2,-30,-1
18:53:47.090673,-5,-3,-3,-1,0,-3,-1,-5
18:53:47.090673,0,-3,-1,1,-2,-3,0,0
18:53:47.112660,1,2,2,1,0,-3,-1,-1
18:53:47.113659,-4,1,2,2,0,1,-2,-2
18:53:47.134646,1,0,1,-2,-3,-3,-3,1
18:53:47.135645,0,-2,-2,-2,1,-1,0,1
18:53:47.149636,2,1,0,-2,-2,0,0,-1
18:53:47.150636,-2,-2,-2,-3,-2,2,9,8
18:53:47.172625,-4,-3,2,0,0,0,13,-5
18:53:47.173624,2,3,1,1,-1,7,2,4
18:53:47.187613,-3,-2,-3,-3,-6,1,-2,-2
18:53:47.195610,-4,-2,-3,-1,1,4,-5,-6
18:53:47.209599,0,-2,-1,-1,0,-6,-2,-3
18:53:47.210598,-9,-4,-1,-2,-2,1,-1,-3
18:53:47.232588,0,-3,-1,0,-5,-2,-6,1
18:53:47.233584,-6,-4,1,-1,-1,1,-5,-5
18:53:47.247579,-1,0,0,1,-2,-3,-3,-1
18:53:47.248578,2,-1,0,-1,0,4,16,12
18:53:47.270561,3,1,-4,-1,0,-1,-5,-4
18:53:47.270561,0,-3,-2,-1,-1,0,31,-1
18:53:47.292548,0,1,0,3,-1,3,-5,1
18:53:47.293547,-5,-4,1,-1,1,-1,6,-1
18:53:47.307542,-2,-2,-1,-1,-1,0,-10,-4
18:53:47.308538,0,1,-4,-2,1,1,3,-4
18:53:47.330524,-5,0,1,1,-3,-2,-3,-4
18:53:47.330524,4,0,-3,0,-3,-2,1,-1
18:53:47.352514,-3,0,-1,3,0,-4,-6,-6
18:53:47.353509,2,-1,1,-3,0,-2,11,0
18:53:47.367504,4,-1,1,0,-1,-2,4,6
18:53:47.368502,1,3,2,0,-4,-2,-1,0
18:53:47.390487,-3,-1,0,-1,-6,-3,-2,0
18:53:47.390487,0,-3,-4,-3,2,2,-11,0
18:53:47.412473,-1,-1,0,-3,2,1,2,-3
18:53:47.413473,-7,-8,-1,-1,3,1,3,0
18:53:47.427467,-1,0,-1,-1,-4,0,-5,1
18:53:47.428464,-6,-2,0,2,1,-4,-8,-10
18:53:47.450449,5,0,-2,-3,0,0,3,7
18:53:47.450449,-1,-5,0,0,-2,1,-14,2
18:53:47.472439,0,-2,-1,-1,-4,-4,-2,-6
18:53:47.473438,0,1,1,-1,1,-1,-5,-3
18:53:47.495422,6,-6,-2,-1,-1,0,7,12
18:53:47.495422,-4,-3,0,-2,-2,0,-4,-3
18:53:47.510412,-2,0,-4,1,2,-1,-6,-3
18:53:47.510412,-3,-3,-5,-1,-4,-4,6,-3
18:53:47.532399,2,4,3,6,4,5,-5,1
18:53:47.533398,-1,-3,0,-1,0,-2,-14,1
18:53:47.547390,-6,2,0,-3,-3,0,1,-2
18:53:47.562382,4,1,1,-1,-1,1,18,33
18:53:47.570375,5,0,-1,2,1,-3,-3,-5
18:53:47.570375,-3,-2,-3,0,-1,1,-1,-3
18:53:47.592365,3,7,-2,1,1,-5,-19,-7
18:53:47.593361,-3,-1,1,0,-1,0,-3,-2
18:53:47.615349,3,-1,2,1,0,-1,1,2
18:53:47.615349,-2,2,-2,-3,-2,0,3,1
18:53:47.630339,-7,-2,1,3,-1,-1,-2,-1
18:53:47.630339,1,-2,-1,0,0,3,-8,6
18:53:47.652327,12,3,-1,2,4,-1,1,2
18:53:47.653327,-6,-5,0,-4,0,-1,-1,0
18:53:47.667316,2,0,-2,-2,0,0,-1,-1
18:53:47.675314,-3,-2,-2,-3,1,1,0,0
18:53:47.690301,-1,2,1,-4,-4,-6,-3,-3
18:53:47.690301,-1,0,2,-1,0,-2,-2,0
18:53:47.712289,-4,-2,0,-1,-2,0,-13,13
18:53:47.713287,4,5,1,1,5,5,-3,2
18:53:47.727279,-2,-2,-3,0,-1,-4,-1,-4
18:53:47.735276,-2,-2,-1,0,-2,-6,-4,-5
18:53:47.750263,-3,-1,0,-3,-1,0,0,0
18:53:47.751263,5,-3,-3,-4,-2,1,-10,2
18:53:47.780247,-4,-3,-1,-5,-2,-3,2,0
18:53:47.781247,2,0,1,3,-1,3,1,2
18:53:47.795239,-7,-1,-1,-2,-6,-1,-2,-4
18:53:47.795239,-5,-3,-1,-1,-1,0,2,-1
18:53:47.810227,-5,-3,-2,-2,-2,-1,-2,-3
18:53:47.810227,3,-1,0,2,1,-2,6,15
18:53:47.833212,1,-2,1,-1,-3,0,1,0
18:53:47.833212,0,0,-3,-3,-2,0,-1,-3
18:53:47.855202,-8,-2,-3,0,-2,4,-12,-5
18:53:47.856198,-5,-2,-3,0,-3,-3,-4,-5
18:53:47.870193,-2,-3,1,0,-1,0,1,-5
18:53:47.877185,9,8,1,3,4,4,7,2
18:53:47.892176,1,-3,-3,2,2,0,10,3
18:53:47.893175,-3,1,-1,-3,-3,-1,-1,-1
18:53:47.915165,-6,-5,-1,2,1,2,-3,-1
18:53:47.916165,0,0,-1,-1,-1,0,-1,-1
18:53:47.930152,-1,0,-2,0,-2,-2,-4,2
18:53:47.931152,-1,-1,-1,-1,-1,1,1,2
18:53:47.952139,-5,0,-5,0,0,-4,-2,-2
18:53:47.953141,-2,-1,-1,1,-1,-1,1,3
18:53:47.975128,1,0,0,0,4,-1,-2,-2
18:53:47.976126,5,6,0,2,-4,-1,0,-3
18:53:47.990115,-8,-5,-4,-4,-2,-4,14,0
18:53:47.990115,1,0,-3,-1,0,1,14,3
18:53:48.012103,6,5,0,-1,0,-7,-8,-7
18:53:48.013101,-4,1,-4,1,-2,-1,-1,-3
18:53:48.035090,-2,-2,-1,0,3,2,0,-1
18:53:48.036089,-1,0,0,-3,-2,-3,3,3
18:53:48.050081,-4,1,0,-1,0,-3,-3,-2
18:53:48.051080,0,-1,-2,-1,-4,0,6,1
18:53:48.073064,-4,-6,0,-1,-4,-4,-2,1
18:53:48.073064,1,2,-1,2,0,-1,-3,-3
18:53:48.095050,-10,-8,-4,-1,-2,0,-2,-8
18:53:48.096049,-4,-5,-1,-2,0,0,-2,-5
18:53:48.110044,-2,1,-1,0,1,2,-1,-7
18:53:48.118038,-1,-1,-1,-1,-3,-6,-25,-7
18:53:48.133026,-8,-3,-2,-3,-5,-3,-13,2
18:53:48.133026,-3,0,-4,2,0,0,4,1
18:53:48.155012,-13,-7,0,-2,0,-1,-7,-19
18:53:48.156012,9,5,4,-1,0,2,4,8
18:53:48.170006,-6,-4,-3,1,-3,-1,-5,-7
18:53:48.178002,0,-5,0,2,-4,-4,-3,1
18:53:48.199988,-10,-7,-4,0,-3,1,3,0
18:53:48.200984,1,1,-1,-3,-1,-4,-4,-7
18:53:48.214979,1,1,-1,0,-1,0,-1,-1
18:53:48.215978,0,0,0,1,0,0,-2,1
18:53:48.229969,-2,1,-3,-2,0,2,0,-1
18:53:48.237962,-1,-3,0,-1,0,1,-17,4
18:53:48.252954,13,9,2,1,2,2,6,6
18:53:48.252954,-3,1,-4,-2,-5,-3,-2,-1
18:53:48.274942,-2,0,2,1,1,2,7,-4
18:53:48.275941,0,0,-5,-2,-3,-2,1,1
18:53:48.289932,-1,0,0,-1,-1,-2,-2,0
18:53:48.297925,-1,-2,-2,3,-1,-2,-3,0
18:53:48.312915,-7,2,0,1,0,-2,-4,-4
18:53:48.312915,-8,-2,-2,1,-1,-4,-4,-1
18:53:48.334904,-4,0,-1,0,-1,-4,-23,-4
18:53:48.335903,-2,2,-3,2,-1,-6,-1,-3
18:53:48.349894,-4,-1,0,-3,-1,-4,-5,-10
18:53:48.357891,9,3,-3,-1,-2,1,-8,1
18:53:48.372877,-4,-1,0,-2,-1,1,3,2
18:53:48.372877,0,0,-2,-1,-1,-1,-1,-1
18:53:48.394867,-1,-3,1,-3,0,1,0,5
18:53:48.395864,23,8,0,0,2,1,-4,10
18:53:48.409855,-4,-1,2,3,-2,4,9,2
18:53:48.417853,-3,-1,1,1,-1,-4,-2,0
18:53:48.432844,-2,-3,0,-3,0,-4,-3,-3
18:53:48.433842,-1,-1,-1,-1,-1,2,2,-4
18:53:48.454827,-4,-6,-2,-1,-1,2,3,-3
18:53:48.455827,1,2,2,-1,1,0,-1,4
18:53:48.469818,6,4,-3,3,-2,-2,-3,-10
18:53:48.477816,1,-1,1,3,0,1,-1,-4
18:53:48.492807,-8,-2,-2,-2,-2,0,-9,1
18:53:48.492807,-3,-2,-1,-1,-2,1,5,-1
18:53:48.515789,-2,-2,2,0,-1,-1,-3,1
18:53:48.515789,-1,-2,0,2,-1,-2,-8,3
18:53:48.530781,-3,-5,-1,-1,0,0,-2,-2
18:53:48.537779,-1,2,0,0,2,-1,-2,4
18:53:48.552769,3,6,0,-3,-3,-8,-5,-3
18:53:48.553766,-3,-4,0,-2,-2,0,-2,1
18:53:48.574754,-2,0,-2,-2,-2,2,-1,-5
18:53:48.575752,4,1,-4,1,-2,0,-5,-2
18:53:48.589743,-6,0,0,-4,-1,-1,-2,-8
18:53:48.597741,3,-1,-4,-4,1,2,3,1
18:53:48.619725,-6,-5,1,0,-1,-4,-6,-10
18:53:48.620727,2,-1,-2,-5,-3,-1,-5,-4
18:53:48.634715,-6,1,-2,0,-2,-3,-5,-6
18:53:48.635714,-5,-1,-4,0,-3,-2,-15,-6
18:53:48.650705,-1,-1,0,-3,-1,-1,-7,-1
18:53:48.657704,-1,-2,1,-2,-1,-1,3,1
18:53:48.672695,-2,1,3,-1,2,-4,-2,-2
18:53:48.672695,-6,-1,-3,0,-5,1,-1,1
18:53:48.694681,-1,-1,-1,-3,1,2,2,3
18:53:48.695677,2,-1,1,-4,-2,1,0,1
18:53:48.717667,0,-3,-1,-3,1,0,1,2
18:53:48.718663,-2,0,-2,-2,-4,0,-1,-1
18:53:48.732658,-2,0,0,2,-2,4,1,-4
18:53:48.733656,9,3,-1,-1,-2,4,4,11
18:53:48.754641,-1,-1,-2,0,2,-1,0,0
18:53:48.755642,2,-1,-1,0,0,-1,2,-3
18:53:48.777630,-1,2,0,0,4,1,-5,-6
18:53:48.778628,-2,2,0,1,-4,6,-9,-1
18:53:48.792620,11,0,-4,1,-4,-5,0,3
18:53:48.793617,0,-3,-4,-1,-4,0,-1,6
18:53:48.815606,-6,-6,-2,-1,0,-4,-3,-4
18:53:48.815606,-3,-2,-3,-1,-3,-1,7,2
18:53:48.837593,-3,-2,-3,-3,-1,-3,-4,-2
18:53:48.838588,-4,-2,-6,-5,-3,-5,1,-2
18:53:48.852583,0,0,0,-1,-3,-1,10,12
18:53:48.853580,2,1,1,-1,-4,-3,5,4
18:53:48.882565,-3,-3,-3,-1,-3,-2,-4,-11
18:53:48.883562,-2,-2,-2,1,-3,-1,-1,2
18:53:48.897556,6,-2,-1,-1,3,0,6,5
18:53:48.898552,0,1,0,-1,-5,-3,-9,-3
18:53:48.912543,-5,0,2,-2,1,-5,-3,-4
18:53:48.913543,-10,-6,-4,-2,-5,-7,1,-15
18:53:48.935529,-2,0,0,0,1,7,11,1
18:53:48.935529,-3,-1,-2,0,-4,-2,17,-2
18:53:48.957518,-2,0,-1,-1,1,1,1,0
18:53:48.958515,-1,-1,2,1,1,0,1,-5
18:53:48.972509,2,-1,-3,-3,-1,3,5,0
18:53:48.973508,4,-4,-2,-2,0,5,6,15
18:53:48.995492,1,-2,3,-3,-4,1,-2,-6
18:53:48.995492,-3,-1,-1,-2,1,-3,-2,1
18:53:49.017481,-10,-7,-3,1,-2,0,-3,-4
18:53:49.018479,-3,-1,1,0,2,3,-18,-7
18:53:49.032471,-1,-5,-1,-2,-4,-4,1,0
18:53:49.040464,5,1,-5,0,-2,6,7,2
18:53:49.055454,-5,-1,-1,-3,1,0,-1,-2
18:53:49.055454,3,-2,0,0,-2,-7,1,-1
18:53:49.077444,1,2,0,0,1,1,-3,4
18:53:49.078440,-2,2,-3,-1,-2,-3,2,-3
18:53:49.092434,-2,-2,-1,-2,1,-1,-3,-2
18:53:49.100427,-2,4,-4,-3,-4,-4,-6,-10
18:53:49.115416,-4,-1,-1,-3,0,0,0,-2
18:53:49.115416,-3,-2,0,-2,-3,-2,-3,-2
18:53:49.145398,7,3,2,2,4,0,8,-1
18:53:49.145398,6,5,1,2,4,6,6,8
18:53:49.152394,2,-3,0,1,-1,-2,-8,2
18:53:49.160389,-4,-3,-4,-5,-2,-2,13,-2
18:53:49.175380,5,-1,-2,4,2,2,3,2
18:53:49.175380,-5,-4,-2,1,-3,-1,-4,-8
18:53:49.197367,-4,-3,-1,-2,-1,-4,-2,-3
18:53:49.198366,7,0,-3,-2,-1,1,3,6
18:53:49.212357,-2,1,-1,-1,-1,2,0,1
18:53:49.220355,-4,-3,0,-1,-3,-5,1,6
18:53:49.235345,1,0,-2,2,4,-1,2,5
18:53:49.235345,1,0,4,-1,-1,-3,-5,0
18:53:49.257332,-4,-2,-1,-5,-1,-3,-3,-2
18:53:49.258328,1,-3,0,-1,-4,-3,-9,-2
18:53:49.272323,2,1,3,0,2,-1,-18,15
18:53:49.280318,-4,-7,0,-2,-3,-3,3,1
18:53:49.295306,-4,-3,1,-4,-2,-2,-5,-7
18:53:49.295306,-6,-1,0,-2,0,0,-3,-4
18:53:49.317295,-3,-7,-3,-4,2,-4,-5,-2
18:53:49.318291,-7,-5,1,-2,-1,1,-4,-5
18:53:49.332283,-3,-6,-3,-2,-5,0,-3,-6
18:53:49.340281,2,-3,0,0,1,-4,-2,-3
18:53:49.355271,3,1,-2,-2,-4,0,6,6
18:53:49.356268,1,0,2,1,-2,-1,-3,-4
18:53:49.377257,-2,1,0,-5,2,-2,10,-2
18:53:49.378256,6,2,2,4,0,2,-2,-1
18:53:49.392246,1,3,-1,0,0,-2,-26,18
18:53:49.400244,-6,-2,-2,-2,2,2,10,1
18:53:49.415234,2,1,0,-4,-4,-2,0,-5
18:53:49.416231,-2,-3,-2,-4,-2,-1,-2,-3
18:53:49.437217,-3,-1,1,2,3,-1,-3,-14
18:53:49.438217,7,1,-1,-1,1,7,9,8
18:53:49.453211,-5,-2,2,-4,-4,-3,9,-4
18:53:49.460206,-3,-1,-3,0,2,0,12,0
18:53:49.475197,-4,-4,-3,-5,1,-6,-16,-10
18:53:49.476194,6,5,-5,-3,-3,3,18,6
18:53:49.498180,0,-6,-3,0,-4,-2,-2,12
18:53:49.498180,-4,-3,0,2,4,-1,-2,5
18:53:49.513171,0,0,1,1,1,1,0,-3
18:53:49.520169,1,-1,-2,-1,0,-4,12,1
18:53:49.535160,0,-2,0,-1,1,1,-7,-4
18:53:49.536158,6,0,-4,-2,-4,-6,2,10
18:53:49.558143,11,4,2,0,-2,0,7,8
18:53:49.558143,-3,-1,-4,0,-1,-8,12,-4
18:53:49.573133,-3,0,1,0,1,0,5,-1
18:53:49.580132,-3,-1,0,-1,-1,-1,-9,-4
18:53:49.595122,-1,-2,2,-2,-3,-4,0,1
18:53:49.596120,-1,-2,-1,1,-3,-3,-2,0
18:53:49.618108,-4,-2,0,-1,0,1,-9,-14
18:53:49.618108,-4,-5,-4,0,0,-1,-11,7
18:53:49.633098,0,-3,-1,1,4,-1,11,7
18:53:49.640095,-2,0,-2,0,0,2,-2,0
18:53:49.655085,-3,-1,-2,-2,-2,-3,-5,-2
18:53:49.656084,-3,-4,-1,0,0,-2,0,1
18:53:49.677068,3,1,2,-3,-3,-3,-2,-1
18:53:49.678070,-2,-2,-4,-1,-2,-4,3,-2
18:53:49.700058,-4,-7,-3,-1,-5,-2,-11,-2
18:53:49.701056,0,-3,-4,-2,-1,-1,3,1
18:53:49.715048,-3,-1,1,-1,1,-5,-14,-3
18:53:49.716048,-1,1,-3,-1,1,1,2,4
18:53:49.737034,-4,-5,-2,-1,0,-5,1,1
18:53:49.738032,0,0,0,-1,-3,8,4,0
18:53:49.760017,-1,-2,-2,0,1,-4,-4,7
18:53:49.761020,0,3,1,1,1,1,6,4
18:53:49.775011,0,-1,-1,1,-3,-3,-17,-6
18:53:49.776010,0,1,-3,-3,-1,-3,7,4
18:53:49.797996,-1,-1,-2,1,-3,-6,-2,-4
18:53:49.797996,4,1,-2,-1,-3,0,0,-1
18:53:49.819980,7,0,0,1,-2,-3,-11,1
18:53:49.820980,-5,-3,-3,-1,-1,-2,3,-2
18:53:49.834974,8,-1,-1,-3,-4,-5,-7,3
18:53:49.835970,-5,-4,0,-1,1,-5,7,-2
18:53:49.857957,1,-2,-1,0,-2,-1,-4,-5
18:53:49.857957,3,-1,2,0,-1,-2,-2,-5
18:53:49.879946,-5,-2,-2,0,-1,3,9,13
18:53:49.880943,-1,-4,-2,0,0,-3,-1,-2
18:53:49.894936,-2,-4,-4,-5,1,2,14,-1
18:53:49.895935,23,9,2,3,0,3,-1,2
18:53:49.917920,-2,-3,-1,-2,-1,-3,2,-1
18:53:49.917920,-1,-4,-1,0,1,-3,16,-3
18:53:49.939909,-5,-2,-5,-1,-6,-5,-4,-4
18:53:49.940906,-4,-1,-1,-1,-3,0,1,-3
18:53:49.954899,-4,1,0,-1,-2,-1,-8,-7
18:53:49.955896,-3,-2,-3,0,-1,0,-4,1
18:53:49.985877,-8,-3,-2,-4,-2,1,-14,-8
18:53:49.985877,1,0,-2,0,0,-1,3,-1
18:53:49.999872,-1,-3,-1,2,-2,-4,-8,-9
18:53:50.000871,10,3,-2,0,1,1,7,10
18:53:50.014861,-3,-1,0,-4,-4,-1,9,-11
18:53:50.022857,0,0,-1,1,1,1,-5,-2
18:53:50.037845,-5,-1,0,-1,1,4,-12,2
18:53:50.037845,-4,-4,-3,-2,-5,-4,-6,-11
18:53:50.059835,-1,4,-1,-2,1,2,1,0
18:53:50.060833,1,-1,0,-3,-1,4,0,3
18:53:50.074825,0,-2,-3,-1,-2,-5,-8,-4
18:53:50.082820,5,0,0,3,-1,1,0,4
18:53:50.097808,-2,-1,-2,-1,1,0,6,3
18:53:50.097808,2,2,1,-1,5,8,7,7
18:53:50.119797,-7,-1,0,-4,-1,-4,-4,-4
18:53:50.120796,2,-1,-2,0,-2,-4,-26,-7
18:53:50.134788,3,1,1,0,-1,1,6,4
18:53:50.142783,-3,-1,-2,-5,0,0,-2,4
18:53:50.157774,-2,-3,-1,0,4,-2,-4,-5
18:53:50.157774,-3,-2,-2,0,-1,-3,0,3
18:53:50.180756,-3,0,0,-1,0,-4,-2,-5
18:53:50.180756,2,-2,-4,-1,-1,-2,-11,-2
18:53:50.194748,6,1,0,1,1,0,1,-3
18:53:50.202746,-5,0,1,-2,-2,2,-3,-1
18:53:50.217734,0,-1,0,-1,-4,0,1,5
18:53:50.218733,-6,-4,-2,-2,-1,0,-7,-15
18:53:50.239720,4,2,-1,4,4,7,-4,1
18:53:50.240722,-1,-1,-2,1,-4,-4,-22,-1
18:53:50.255723,-1,-4,-1,-1,0,0,2,0
18:53:50.262708,0,0,1,-2,-2,-2,6,14
18:53:50.277700,-5,-2,-3,1,-2,-2,-5,-4
18:53:50.278698,6,1,2,-2,-4,-1,1,1
18:53:50.300682,3,-2,0,-1,-1,2,1,-3
18:53:50.300682,4,2,-1,0,0,1,8,20
18:53:50.315674,2,1,-2,-3,-4,-5,-4,-2
18:53:50.322672,1,2,2,-2,1,0,4,0
18:53:50.337662,-4,-1,0,-2,-3,-3,-5,2
18:53:50.338658,7,8,-2,0,-3,-5,-13,-7
18:53:50.360648,-7,-8,-2,-2,-2,-4,4,-6
18:53:50.360648,6,8,0,3,2,8,10,6
18:53:50.375638,-5,-7,-1,-2,-1,-8,-5,-3
18:53:50.382634,-4,-2,-3,-1,-2,-3,2,-4
18:53:50.397625,2,-1,-2,1,0,1,-1,2
18:53:50.398625,4,3,-1,-3,-3,-3,-6,-8
18:53:50.419609,-12,-11,-5,-2,2,-1,-4,-7
18:53:50.420610,12,3,-5,-1,1,-1,32,4
18:53:50.435601,-1,-2,-3,-3,4,0,-1,-5
18:53:50.442597,-5,-5,-2,2,0,2,-9,1
18:53:50.457586,2,-2,2,0,0,-2,8,-1
18:53:50.458586,-3,1,1,0,-1,-3,3,-3
18:53:50.480570,3,0,-2,-1,-4,-5,-9,-6
18:53:50.480570,-10,1,-3,-1,-2,-2,-9,-2
18:53:50.495561,-3,-3,3,1,-1,-1,-3,-5
18:53:50.510555,-6,-3,-1,-1,1,-4,-5,-4
18:53:50.517551,-4,-5,-3,-1,-1,0,-1,-6
18:53:50.518547,3,0,0,-2,3,3,12,10
18:53:50.540535,0,-3,3,1,2,1,-9,-2
18:53:50.540535,2,1,0,0,1,1,-4,-3
18:53:50.555524,-3,-3,-5,-1,-4,-3,1,-10
18:53:50.562520,-5,0,5,2,3,5,14,-5
18:53:50.577513,-3,3,4,1,-1,3,-4,-3
18:53:50.578510,-3,-2,-1,-2,0,-4,-4,-5
18:53:50.600498,3,3,-3,-3,-2,-2,-4,0
18:53:50.600498,-2,-5,-4,-1,-3,-4,-3,-6
18:53:50.622486,2,0,1,-1,2,-1,-6,-4
18:53:50.623485,-2,-1,-3,-4,-2,-2,4,-2
18:53:50.637476,0,-1,-2,-2,-3,-2,0,-4
18:53:50.638474,-2,-2,-3,-2,1,0,0,-2
18:53:50.660461,-7,-2,-2,-2,-1,-2,-7,-1
18:53:50.660461,-10,-4,-4,-3,-4,-4,-5,-12
18:53:50.682448,-1,-2,-2,-3,-2,1,0,3
18:53:50.683447,-3,-3,1,0,-1,0,-2,0
18:53:50.697437,0,-2,-1,1,0,2,0,10
18:53:50.705431,-3,1,2,-2,-1,-4,-2,-6
18:53:50.720423,-4,-4,-1,0,-1,4,-4,0
18:53:50.720423,1,2,-1,-4,-2,-4,-1,9
18:53:50.742408,1,0,-3,-2,0,1,-11,-5
18:53:50.743408,6,1,-3,0,0,-1,4,-4
18:53:50.757402,-7,-4,-1,-2,-4,-4,-4,-8
18:53:50.758401,-2,0,-1,1,0,1,2,3
18:53:50.780385,-4,-1,-1,-1,4,0,-3,-3
18:53:50.781386,-4,-2,-1,1,0,1,-1,-6
18:53:50.802371,0,0,-1,1,1,-4,-3,-6
18:53:50.803371,3,1,-4,-2,0,2,6,2
18:53:50.825356,3,-3,-1,-1,0,-1,-2,1
18:53:50.825356,2,2,2,-2,0,6,11,16
18:53:50.840347,0,-3,-1,-1,-5,1,18,-1
18:53:50.840347,0,-3,3,0,-1,2,-20,3
18:53:50.862334,-6,-4,2,1,-4,-5,4,-4
18:53:50.863336,-8,-3,-2,-4,-2,-3,-1,-7
18:53:50.877327,-1,-2,1,1,0,-2,-1,-7
18:53:50.878324,0,-5,-4,-3,-4,-1,-5,-6
18:53:50.900311,2,-1,-4,-3,-1,-2,-2,-1
18:53:50.901310,-4,-3,-1,-1,-1,-4,-3,2
18:53:50.930293,-3,-4,-3,-3,-4,-5,-4,0
18:53:50.930293,0,0,-3,-2,1,-2,1,3
18:53:50.937287,5,1,-1,0,0,-1,0,-3
18:53:50.945285,-6,-1,-1,-4,1,0,-16,0
18:53:50.960276,0,-3,-3,-1,-2,-5,-1,1
18:53:50.960276,0,-1,-1,-1,2,2,-12,4
18:53:50.982261,-1,0,-1,0,0,-1,10,5
18:53:50.983259,-4,1,-1,-6,-2,1,3,-2
18:53:51.005248,0,-1,-1,-3,1,-2,-2,-3
18:53:51.006246,4,-2,0,-1,1,3,8,17
18:53:51.020239,-10,-3,-2,-2,-2,4,2,-2
18:53:51.020239,0,-1,-2,-1,-3,-3,-3,-4
18:53:51.042224,-2,-4,0,-5,-3,-2,-5,-1
18:53:51.043224,-3,-1,-3,-3,-1,1,-2,-3
18:53:51.065211,-5,0,-3,-1,-2,-5,-32,-2
18:53:51.066207,-6,-4,-3,-3,-4,-5,1,-6
18:53:51.087197,-3,-1,-3,-2,-1,0,2,0
18:53:51.088196,-2,-1,-1,2,1,0,3,2
18:53:51.102186,-3,-6,-3,-4,-4,-2,-7,-5
18:53:51.103184,4,1,-2,0,0,-1,-1,-1
18:53:51.125174,-2,-1,0,0,1,-1,-5,-3
18:53:51.126174,-2,-1,-3,0,1,0,0,2
18:53:51.140165,1,-1,2,-1,-3,-5,-16,-4
18:53:51.141163,-2,-1,-1,-3,0,-4,4,2
18:53:51.163148,-2,-1,-4,-2,0,-3,-3,1
18:53:51.163148,1,0,1,2,2,-1,1,2
18:53:51.178140,-1,0,-1,-3,-1,-1,18,2
18:53:51.185135,2,3,2,2,0,0,-17,-2
18:53:51.200128,6,2,-2,-1,0,1,5,5
18:53:51.201127,2,-2,-2,1,-1,-1,-8,1
18:53:51.223110,-4,-4,3,0,-6,-3,5,5
18:53:51.223110,-2,-1,1,-2,-3,-5,-6,-7
18:53:51.238104,1,-2,-4,0,-1,2,7,3
18:53:51.245099,0,-1,-1,2,0,2,1,-3
18:53:51.260090,-4,-3,-2,-4,-3,-5,-8,-7
18:53:51.261089,-1,0,-3,0,0,-6,-3,-2
18:53:51.283073,-4,1,-1,-4,-3,-1,-14,1
18:53:51.283073,2,1,1,1,-4,-5,-12,-4
18:53:51.298063,-2,0,1,1,1,-3,-2,4
18:53:51.305062,-4,-2,-4,-2,0,-1,1,-1
18:53:51.320053,-2,-1,-1,1,-1,-4,1,1
18:53:51.321049,0,0,-1,-1,-3,-3,-5,-3
18:53:51.343039,4,0,1,1,0,2,1,4
18:53:51.343039,-5,-4,-2,0,-2,-1,-7,-1
18:53:51.365025,-1,1,1,0,-1,-4,2,1
18:53:51.366022,-1,-2,-4,0,1,3,-1,-5
18:53:51.380013,-7,-6,-4,0,-2,-1,2,-5
18:53:51.381012,-4,1,-1,-3,0,-7,-4,-5
18:53:51.403001,-3,0,2,2,2,6,-6,-2
18:53:51.403001,-3,-3,-1,-1,-6,0,-20,-1
18:53:51.424988,-3,-3,-1,-1,-1,-3,2,1
18:53:51.425984,1,0,-2,0,-1,-2,0,3
18:53:51.439978,-4,-3,2,0,-4,-6,0,-2
18:53:51.440978,1,-1,0,-1,1,0,0,-2
18:53:51.462961,-2,0,3,2,0,4,-1,-4
18:53:51.462961,-2,0,2,1,0,0,1,1
18:53:51.484947,-1,0,0,-1,-3,-3,-1,-2
18:53:51.485947,0,-1,-2,-1,2,-3,3,8
18:53:51.499941,0,4,2,-1,1,-1,-2,-1
18:53:51.500938,-5,1,-2,-2,-2,2,-6,-8
18:53:51.522927,3,2,0,-1,0,4,25,11
18:53:51.523927,2,3,-2,-1,-2,2,-9,-5
18:53:51.544910,1,2,-1,2,0,-3,-3,-4
18:53:51.545910,8,2,0,3,0,5,10,-1
18:53:51.559901,-6,-3,-1,0,-8,-4,4,-3
18:53:51.560903,2,-1,0,0,1,2,4,1
18:53:51.582890,3,-1,0,-2,0,0,13,41
18:53:51.583888,-7,-1,2,-1,-1,-1,-3,-7
18:53:51.604876,-3,-2,-5,-3,-4,-3,-3,-8
18:53:51.605873,8,2,0,-2,-1,-1,-1,-2
18:53:51.619867,-6,0,5,0,1,-3,-5,-7
18:53:51.620866,4,3,0,-4,-1,-2,3,17
18:53:51.642850,-3,-4,-2,-4,0,1,0,-3
18:53:51.642850,1,2,0,0,1,-2,-1,3
18:53:51.664839,2,4,2,0,-2,3,-8,-1
18:53:51.665836,8,4,1,6,7,3,5,6
18:53:51.679827,8,8,-1,0,-4,2,2,-1
18:53:51.680829,-7,-3,0,-5,-4,-2,-3,-3
18:53:51.702812,-6,-3,-1,-1,-4,-1,-2,-4
18:53:51.703814,0,-2,-2,0,0,1,2,1
18:53:51.724799,-2,-3,-1,-1,-2,-1,0,1
18:53:51.725801,-2,0,0,-5,-1,1,-3,-1
18:53:51.740790,0,1,2,2,2,2,4,3
18:53:51.740790,-2,-1,-1,-1,-1,-2,-2,-5
18:53:51.762780,10,2,1,-2,0,-3,-1,5
18:53:51.763775,-3,-1,-3,-2,-3,-1,1,-2
18:53:51.784763,2,1,1,-1,0,-1,0,-2
18:53:51.785761,2,0,-2,-5,-3,3,5,3
18:53:51.799755,5,-1,0,1,0,1,-1,4
18:53:51.800752,-3,0,-1,-3,-2,-1,-2,-4
18:53:51.822741,-6,-2,-4,-4,-2,-3,-4,-8
18:53:51.823738,3,-4,0,0,0,-1,2,0
18:53:51.844726,-3,-1,0,-3,0,-1,-2,-1
18:53:51.845724,-3,-2,0,-1,0,-1,2,3
18:53:51.859717,1,-4,-3,4,-3,0,-2,-2
18:53:51.860716,3,2,-4,-3,-3,0,-3,0
18:53:51.882704,1,-3,-2,-3,-3,-5,-1,2
18:53:51.883701,-2,1,0,-3,-3,-1,-4,-6
18:53:51.904687,1,-3,0,-1,-3,-1,-2,1
18:53:51.905687,1,1,1,-1,2,2,-1,-1
18:53:51.919678,2,0,-2,-1,5,7,0,-2
18:53:51.920678,-1,0,-1,-3,-3,-1,-1,0
18:53:51.942667,3,-5,-2,-4,0,4,6,2
18:53:51.943663,-1,-1,-1,5,22,-6,-1,-5
18:53:51.965650,3,8,-2,-5,-13,-4,-4,-9
18:53:51.965650,-4,0,2,4,8,-4,-8,-6
18:53:51.980643,-1,-4,-2,1,1,1,-2,-6
18:53:51.980643,-2,-5,-1,6,-1,-1,-1,-2
18:53:52.002630,2,-3,-1,3,1,-1,0,1
18:53:52.003628,2,4,-2,-1,-4,-3,3,0
18:53:52.024613,1,0,3,4,2,4,4,3
18:53:52.025612,4,3,-1,2,-1,-1,-1,-4
18:53:52.040606,-7,-1,-1,2,-5,-2,2,-2
18:53:52.040606,1,3,3,-1,-2,6,5,3
18:53:52.062592,0,-1,1,-2,1,-1,-1,2
18:53:52.063591,1,3,-3,-12,-6,-1,0,-2
18:53:52.085579,-1,-4,-5,-1,1,2,0,-2
18:53:52.085579,-3,-3,0,-3,-2,0,0,-2
18:53:52.100565,-1,0,3,8,0,2,-4,-3
18:53:52.100565,3,2,3,-2,1,1,-1,3
18:53:52.122555,-2,-2,-8,-13,-56,-3,0,-1
18:53:52.123554,-1,0,1,-11,9,-1,-2,-1
18:53:52.145538,-3,-2,4,13,5,-4,-2,-3
18:53:52.145538,-2,0,-1,-18,-9,-1,0,1
18:53:52.160530,-3,-2,-2,1,-4,-1,-2,0
18:53:52.160530,1,1,-1,2,1,0,4,0
18:53:52.190510,-6,1,12,20,-2,-7,-4,-4
18:53:52.190510,8,7,-6,6,29,7,5,7
18:53:52.205500,1,-1,-5,12,-9,-13,-3,-3
18:53:52.205500,-10,-13,-3,12,38,7,-7,-8
18:53:52.220491,15,32,1,-43,-110,-28,13,9
18:53:52.220491,-21,-37,5,91,-128,-62,-15,-15
18:53:52.242481,8,36,43,76,127,109,12,5
18:53:52.243480,10,12,39,80,127,-10,3,8
18:53:52.265464,26,59,24,-128,127,119,27,18
18:53:52.265464,2,3,21,127,127,65,-8,0
18:53:52.280455,4,-14,8,127,-128,100,20,6
18:53:52.287451,-7,-88,-128,-128,-128,-128,-23,-2
18:53:52.302444,-31,21,98,-128,-128,-115,-34,-26
18:53:52.303443,-9,11,43,-26,127,16,16,1
18:53:52.325427,-10,-5,26,127,-30,74,-8,2
18:53:52.325427,65,119,17,-128,-27,-98,38,31
18:53:52.347416,-43,-82,-62,-128,-128,-62,-21,-31
18:53:52.348412,11,85,69,110,-128,83,24,-3
18:53:52.362403,-9,-112,-128,80,127,91,-22,-5
18:53:52.363406,21,58,69,-36,-128,3,21,28
18:53:52.385389,-16,-36,-59,-22,-61,8,-11,-19
18:53:52.385389,21,20,29,127,-109,127,24,16
18:53:52.407379,25,72,62,-128,-128,-27,6,26
18:53:52.408375,-4,-16,0,2,127,43,2,6
18:53:52.422369,-13,-21,54,74,-128,-50,-26,-9
18:53:52.423368,14,83,-53,-128,-128,-128,-37,-2
18:53:52.445351,-89,-128,-128,34,127,127,-9,-46
18:53:52.445351,21,123,65,49,-128,31,6,11
18:53:52.467341,15,35,-95,-128,-128,-128,-79,3
18:53:52.468338,-84,-100,-7,127,-128,24,-16,-42
18:53:52.482332,-47,-128,-128,127,127,-128,-28,-25
18:53:52.483328,59,127,127,-128,-128,-128,-23,19
18:53:52.512310,-7,-58,-100,17,102,127,-15,0
18:53:52.513313,18,-79,-74,21,89,-128,2,22
18:53:52.527304,-5,-128,-128,127,127,127,48,18
18:53:52.528302,39,112,107,12,-128,-37,13,28
18:53:52.542295,-23,-98,-102,-128,-128,21,-1,-13
18:53:52.543294,45,84,108,127,127,-128,6,11
18:53:52.565277,5,36,4,-128,-128,-128,-12,2
18:53:52.565277,-29,-69,-44,-54,127,-15,-21,-22
18:53:52.587267,34,87,83,127,127,-31,7,8
18:53:52.588266,3,-8,-24,-128,-128,47,2,6
18:53:52.602257,-1,-31,-46,127,127,127,9,-1
18:53:52.603257,-10,-72,-51,17,14,-128,-18,2
18:53:52.625244,-8,-48,-115,-128,68,127,3,-5
18:53:52.626243,1,33,42,127,127,-128,-11,-7
18:53:52.647228,23,125,127,4,22,-41,-11,-1
18:53:52.648229,12,11,1,-24,127,-71,4,12
18:53:52.662219,-15,-21,16,127,127,127,8,-18
18:53:52.663217,23,63,34,-128,127,127,14,18
18:53:52.685206,-74,-128,-128,-128,-81,-17,-25,-22
18:53:52.685206,14,65,87,127,127,127,27,2
18:53:52.707191,50,94,78,85,127,-24,10,23
18:53:52.708189,-5,-37,-67,41,-20,42,5,3
18:53:52.723182,26,60,41,109,127,127,17,8
18:53:52.723182,-4,-13,-24,127,15,76,-9,2
18:53:52.745169,-8,-42,-52,-63,-44,39,-2,5
18:53:52.746167,-38,-87,-76,-128,127,67,-8,-20
18:53:52.767152,-3,7,37,127,127,127,14,1
18:53:52.768154,-1,10,22,50,56,-64,-11,-11
18:53:52.782144,-4,-28,-31,48,127,92,5,2
18:53:52.783143,26,45,52,127,127,127,19,18
18:53:52.805132,-4,-9,-49,-128,-36,5,-7,-2
18:53:52.806131,-48,-104,-91,25,127,127,-5,-31
18:53:52.828118,15,14,40,127,-104,52,9,13
18:53:52.828118,28,68,65,-27,-93,-128,-3,13
18:53:52.842106,47,87,29,-128,24,-114,12,21
18:53:52.843105,-14,9,22,-128,-120,-117,-15,-10
18:53:52.865095,4,-4,-44,-128,-79,70,2,3
18:53:52.866091,12,46,34,-36,-128,-69,-4,-1
18:53:52.888077,-9,-48,-30,11,127,27,0,-2
18:53:52.888077,-27,-63,-32,127,127,127,12,-15
18:53:52.902070,23,40,-7,33,-34,127,19,12
18:53:52.903069,16,52,22,-128,127,41,2,1
18:53:52.925058,-17,-32,-59,-95,-128,-27,-4,-15
18:53:52.926056,5,-10,-31,-128,21,-30,-4,8
18:53:52.948043,-6,-8,9,53,-84,-128,-10,-10
18:53:52.948043,-26,-28,-18,-87,-107,-98,-18,-21
18:53:52.963031,7,21,17,8,-128,-128,-8,0
18:53:52.963031,-12,-46,16,127,97,74,10,-3
18:53:52.985020,9,45,43,-128,-128,-128,-14,7
18:53:52.986020,-3,3,23,-19,-32,-55,-2,-5
18:53:53.008003,-29,-83,-69,112,102,118,-3,-12
18:53:53.008003,43,113,72,127,127,127,12,14
18:53:53.022994,3,7,4,-128,-128,-115,-6,7
18:53:53.023996,6,24,13,95,127,-11,0,-3
18:53:53.044982,7,9,19,127,127,127,9,5
18:53:53.045983,13,44,35,-115,-128,-128,-12,7
18:53:53.067967,-8,-6,-3,-16,127,-35,-3,-2
18:53:53.067967,-16,-28,-31,16,127,28,-8,-11
18:53:53.082960,16,1,-1,127,127,121,14,14
18:53:53.089954,2,-5,-18,-35,127,127,4,6
18:53:53.105942,3,-6,23,127,125,95,6,-1
18:53:53.105942,7,20,14,-53,-56,-74,-4,5
18:53:53.127931,-1,-1,5,38,127,-8,-3,1
18:53:53.127931,-3,1,22,65,64,20,1,-8
18:53:53.142922,0,2,11,61,-58,1,2,2
18:53:53.149915,-5,-5,1,27,75,103,4,-5
18:53:53.164909,1,1,-4,-21,-17,-17,-1,0
18:53:53.165908,-3,1,-1,-6,-4,-8,1,-1
18:53:53.187891,0,-1,-1,0,1,0,2,-3
18:53:53.187891,-9,0,-2,-4,1,-9,-10,-1
18:53:53.202885,4,1,1,-3,4,6,5,2
18:53:53.217876,0,-2,-8,-6,-12,-15,-16,-8
18:53:53.224871,-8,-6,5,5,8,-6,42,-14
18:53:53.225871,77,9,6,4,17,34,83,33
18:53:53.254853,-38,25,-21,-24,-31,-38,-128,1
18:53:53.255852,-96,-29,6,2,6,-2,39,-61
18:53:53.262848,122,-71,-12,-1,19,64,127,57
18:53:53.269841,127,-108,-5,-10,-13,-26,-101,127
18:53:53.292829,-128,-5,-1,-11,-11,-17,127,-128
18:53:53.293829,-89,34,-22,-24,-51,-55,-128,-37
18:53:53.307818,-1,-95,9,22,43,79,127,39
18:53:53.307818,-128,6,-57,-48,-82,-128,127,-128
18:53:53.329803,-92,-24,22,20,29,-5,74,-41
18:53:53.330806,-25,-41,1,17,12,72,-128,-25
18:53:53.344797,-14,15,-8,-62,-25,-10,-13,-6
18:53:53.345794,-43,-10,64,82,127,106,-2,-16
18:53:53.367783,127,-77,82,127,127,127,16,16
18:53:53.367783,-83,42,-39,-32,-72,-128,-9,-5
18:53:53.382774,-123,21,68,-27,127,127,-128,-32
18:53:53.390766,-23,-55,-79,-51,-103,-49,127,-128
18:53:53.404760,127,81,25,-64,-107,-19,127,10
18:53:53.405759,-128,-78,36,49,-91,-53,-56,-85
18:53:53.427746,-128,-32,-28,-35,-128,-116,109,27
18:53:53.427746,-22,0,-20,-52,7,-38,-24,-74
18:53:53.442736,-77,-2,7,-46,38,21,127,-128
18:53:53.449730,127,-27,-45,-90,-128,-20,-128,80
18:53:53.465719,-25,15,17,20,-39,-71,127,-2
18:53:53.472718,-3,-13,-1,-4,-45,-3,2,-38
18:53:53.487705,6,-5,-4,95,-98,37,42,34
18:53:53.487705,0,-3,-10,39,127,-10,-31,3
18:53:53.509693,26,14,-6,8,127,25,-35,19
18:53:53.510693,-2,2,-14,-33,-73,7,0,-3
18:53:53.525684,-28,-7,19,18,28,28,-13,6
18:53:53.532681,-64,-20,-51,-128,-128,-36,-11,-28
18:53:53.547672,-77,-50,5,81,20,-47,79,-27
18:53:53.548668,47,44,16,-10,66,-29,-89,33
18:53:53.569655,-33,-8,9,-42,21,16,32,-22
18:53:53.570654,-15,-11,1,-30,-128,-5,11,-14
18:53:53.585648,5,-3,-11,-40,-86,-2,16,30
18:53:53.592643,-8,-4,4,-11,-28,-16,-18,-19
18:53:53.607634,-12,-16,-11,-60,43,-11,-31,-21
18:53:53.608633,-17,-4,6,20,35,-16,22,-17
18:53:53.629618,54,35,-6,-12,10,-25,-14,12
18:53:53.630617,25,24,24,91,10,15,22,23
18:53:53.645611,-17,-8,-1,35,127,51,3,-10
18:53:53.660600,2,1,-11,-29,-13,-24,-2,-1
18:53:53.667596,-9,-10,1,-20,57,-10,-11,-7
18:53:53.668593,-6,0,1,12,-5,1,-16,-13
18:53:53.689581,-3,2,11,2,-33,15,-2,-18
18:53:53.690581,-8,-5,-3,-6,-40,0,4,-22
18:53:53.705573,-15,-15,-8,-10,-44,-35,-18,-7
18:53:53.712569,12,11,4,-4,1,5,5,15
18:53:53.727560,-6,-5,5,28,-56,-14,12,1
18:53:53.728559,-3,-1,-4,-4,14,19,0,1
18:53:53.750543,-11,-3,3,22,42,4,-1,-20
18:53:53.750543,2,-4,-10,-17,-23,-25,-19,10
18:53:53.765536,3,1,1,-12,-8,-5,-80,-6
18:53:53.772532,12,2,5,32,-5,-5,6,6
18:53:53.787523,-1,-1,-6,-44,-57,4,35,-6
18:53:53.788520,-6,4,2,6,60,5,-3,-19
18:53:53.810505,-6,-5,6,15,27,-1,22,-14
18:53:53.810505,-3,1,1,-8,6,8,4,-2
18:53:53.825496,-2,2,4,-11,22,20,15,-3
18:53:53.832495,4,5,5,-31,-30,-12,-9,4
18:53:53.847485,13,3,-6,20,33,-16,-11,1
18:53:53.848485,2,-1,4,18,26,6,18,5
18:53:53.870470,0,-3,2,2,13,3,6,6
18:53:53.870470,55,26,10,44,78,11,10,31
18:53:53.885462,-18,-6,-5,-4,9,5,6,-22
18:53:53.892457,-26,-10,-8,-21,2,-23,-32,-30
18:53:53.907448,-1,-9,-4,23,-3,-13,-10,-18
18:53:53.908445,2,4,3,27,90,24,1,-3
18:53:53.930434,4,4,0,4,-17,2,-6,7
18:53:53.930434,-7,-1,-1,0,-41,-3,-3,-12
18:53:53.945422,-22,-16,-5,-8,-44,-6,-6,-17
18:53:53.952419,33,12,10,5,22,27,-6,79
18:53:53.967411,4,1,5,2,0,18,2,-3
18:53:53.968408,-10,-7,0,-7,-5,2,-2,-11
18:53:53.990394,4,2,-1,1,45,1,21,20
18:53:53.990394,-4,-2,1,-3,44,5,-1,-3
18:53:54.005387,5,-3,-8,35,-54,-8,-3,9
18:53:54.012382,-5,2,5,13,50,-15,8,-5
18:53:54.027374,-4,-1,-5,-3,-3,-9,-75,6
18:53:54.028370,-5,-6,-9,-13,-17,-13,20,-22
18:53:54.050356,7,7,-5,-2,0,12,32,16
18:53:54.050356,-11,-6,-4,-4,-2,-5,-10,-14
18:53:54.065350,4,0,1,-2,1,1,13,15
18:53:54.072343,-1,-2,0,-1,-2,-6,-8,-1
18:53:54.087337,-3,-2,2,-17,-27,4,-2,0
18:53:54.088335,-6,-4,-4,5,2,-3,-7,-8
18:53:54.110320,-8,-5,-3,-13,1,-8,-76,5
18:53:54.110320,-7,-4,3,1,-15,-4,8,-16
18:53:54.125313,-11,-2,-1,-7,1,-15,-6,-8
18:53:54.133307,16,3,0,-5,0,8,-17,40
18:53:54.147300,-5,-2,-4,-1,11,-5,-14,-22
18:53:54.148296,2,1,1,0,7,-1,2,-5
18:53:54.170282,0,-2,2,12,22,2,-9,-14
18:53:54.170282,-1,-1,0,-8,-1,-5,13,0
18:53:54.185276,9,3,0,0,0,2,-3,15
18:53:54.200267,4,-4,-4,-15,-6,5,8,-2
18:53:54.207262,-3,-3,-3,8,-4,-6,-6,-9
18:53:54.208261,0,-1,-1,-6,3,-2,-17,15
18:53:54.230248,-14,-5,3,2,4,3,0,-8
18:53:54.230248,-2,-4,0,-20,-6,-3,-2,-3
18:53:54.245238,6,3,-1,-2,3,1,6,15
18:53:54.252231,-4,-3,1,-14,-31,2,-9,1
18:53:54.267224,3,1,3,7,12,4,2,8
18:53:54.268223,10,4,0,2,3,3,-34,4
18:53:54.290208,1,2,-1,0,0,-1,26,-3
18:53:54.290208,4,-1,-4,-4,-3,-5,1,1
18:53:54.305201,-5,-2,0,0,-4,-4,10,-11
18:53:54.312196,9,3,3,-2,1,23,28,18
18:53:54.327186,-2,0,1,-5,0,0,-19,-8
18:53:54.328185,-10,-7,-2,7,-3,-3,-9,7
18:53:54.350174,-5,0,-2,-1,2,0,-15,-7
18:53:54.351173,-7,-3,-1,-2,1,-4,-11,-9
18:53:54.365164,4,-1,-2,5,19,-5,-3,-11
18:53:54.373159,2,0,2,-1,-4,-7,1,3
18:53:54.395145,-10,-4,-4,2,4,-2,-3,-5
18:53:54.395145,4,3,-7,-15,-2,-1,-2,3
18:53:54.410136,0,-2,1,-2,0,6,1,5
18:53:54.411135,-5,-5,0,2,5,-1,50,-3
18:53:54.433120,3,1,1,-2,-4,5,8,7
18:53:54.433120,-2,-1,-1,-4,-4,-5,-4,-10
18:53:54.448113,-2,-1,0,1,1,1,5,-1
18:53:54.448113,0,1,1,2,-1,3,-18,-4
18:53:54.470099,-3,-2,-1,0,-2,-2,2,-4
18:53:54.471099,1,-1,-3,-1,3,3,7,0
18:53:54.493085,0,2,-1,3,1,-4,-1,-1
18:53:54.493085,-1,1,0,-3,-3,2,13,0
18:53:54.508073,-1,-2,2,-4,-18,2,-4,-7
18:53:54.508073,-4,-2,-4,-2,12,1,4,3
18:53:54.530060,-5,-2,-1,2,0,0,1,-1
18:53:54.531061,-10,-7,0,1,-2,3,8,-4
18:53:54.553046,5,1,1,-2,-2,-1,8,-7
18:53:54.553046,7,3,-1,-2,-6,-8,-1,-8
18:53:54.568036,0,-1,-1,-1,-5,0,-38,4
18:53:54.568036,0,0,2,-3,-1,0,8,0
18:53:54.590025,8,6,8,11,7,7,10,3
18:53:54.591021,-6,0,-3,-2,-4,-3,1,0
18:53:54.613008,-1,1,-1,-5,5,1,-2,0
18:53:54.613008,9,6,2,1,5,6,-8,3
18:53:54.627002,-4,-3,-3,-1,0,2,-16,-1
18:53:54.628000,0,-1,0,-3,-4,-8,-6,-8
18:53:54.649987,7,1,0,1,8,6,6,6
18:53:54.650984,-7,0,-1,-2,-5,-3,-5,-4
18:53:54.672971,-1,-1,2,-2,-1,-4,5,12
18:53:54.673971,-3,-1,-2,2,-4,-8,-24,-8
18:53:54.687964,-3,-2,1,0,0,-7,-3,-10
18:53:54.694959,-7,-2,0,0,2,-3,-11,-3
18:53:54.717942,6,5,2,5,3,-4,17,5
18:53:54.717942,-4,-3,-2,-4,-5,2,-6,-3
18:53:54.732934,-3,-2,1,1,-1,-2,-2,2
18:53:54.733934,-3,0,-3,0,-4,0,3,-2
18:53:54.747924,-9,-5,-2,-4,-5,-4,0,-7
18:53:54.762917,1,0,-2,0,3,2,0,0
18:53:54.769913,1,0,-2,-5,-5,-1,0,-6
18:53:54.770912,-4,-3,0,-2,-2,0,3,-7
18:53:54.792899,6,3,2,0,5,-4,1,-1
18:53:54.792899,1,0,0,-3,-3,5,5,-1
18:53:54.807890,-6,-7,0,-3,0,3,-6,1
18:53:54.814882,-3,-5,-1,-2,-3,-3,5,-4
18:53:54.829874,-2,-3,0,0,-1,-1,1,-1
18:53:54.830874,-2,2,2,-1,-2,-2,-1,-1
18:53:54.852860,3,3,5,4,9,7,10,7
18:53:54.852860,-6,1,-3,3,4,-2,-9,-13
18:53:54.867852,8,4,3,2,-1,1,0,9
18:53:54.874846,5,-1,-1,0,-1,2,2,-2
18:53:54.889839,5,2,1,3,1,5,3,19
18:53:54.890838,-5,-5,-5,-4,-3,-4,19,-10
18:53:54.912822,5,1,-4,0,-3,-2,-17,-8
18:53:54.913825,2,-1,0,0,-4,0,-5,-14
18:53:54.927816,-1,-2,0,1,1,-5,3,3
18:53:54.935811,-1,0,-1,1,-1,-1,-3,-1
18:53:54.949802,4,0,-2,-3,-5,-4,-12,-14
18:53:54.950798,11,-1,-2,-2,4,3,8,9
18:53:54.972788,1,4,3,2,1,-1,1,2
18:53:54.972788,-3,-3,-2,-3,-4,4,-10,-3
18:53:54.987778,1,-1,1,0,-1,-4,-22,-6
18:53:54.994771,-1,2,2,2,4,2,3,1
18:53:55.009764,7,0,-1,-3,-2,1,1,20
18:53:55.010762,-1,-3,-4,-3,-2,3,5,10
18:53:55.032751,1,0,0,0,0,-1,2,0
18:53:55.033749,1,-1,-1,1,0,5,8,8
18:53:55.047741,-4,0,-1,0,-1,-3,-4,-7
18:53:55.055735,0,-3,-3,-1,-2,2,0,5
18:53:55.069727,-2,-1,-3,-2,-6,-4,0,-5
18:53:55.070724,-4,-2,0,0,-1,0,-10,1
18:53:55.092710,3,3,-3,-1,0,-3,-12,-4
18:53:55.093717,-9,-6,-2,-2,-4,0,-5,-9
18:53:55.107701,2,1,1,3,4,5,8,1
18:53:55.115696,-2,-3,-3,-2,-4,0,2,-4
18:53:55.129688,-7,-6,-4,-2,-5,0,-7,-5
18:53:55.130687,0,0,-4,-2,-2,1,11,6
18:53:55.152674,-12,-13,-3,-3,0,-7,-11,-6
18:53:55.153673,-6,-5,-2,0,-3,-5,-4,-9
18:53:55.167666,-1,0,-1,3,1,5,-1,-8
