timestamp,emg1,emg2,emg3,emg4,emg5,emg6,emg7,emg8
15:41:14.120497,-4,0,-5,-7,-9,-6,-4,0
15:41:14.135487,-2,-2,-2,-1,-5,-2,-3,-2
15:41:14.136488,-3,-5,-4,-2,3,0,0,1
15:41:14.150478,-3,-4,-3,0,-1,2,-2,-1
15:41:14.158473,-3,-1,-4,0,0,-1,-1,0
15:41:14.173471,0,-3,-1,-1,-8,-6,-1,-1
15:41:14.180460,0,3,0,-1,-3,-5,-1,2
15:41:14.195451,1,-2,0,-6,4,1,-1,1
15:41:14.196450,-1,-1,0,0,-5,-3,-3,-2
15:41:14.210441,-4,-1,-3,-2,0,2,-1,2
15:41:14.217435,-1,-2,1,-2,0,-2,-1,2
15:41:14.233426,-3,-1,-4,-3,-1,-1,0,-2
15:41:14.240422,3,1,1,1,2,0,-3,2
15:41:14.255413,-2,-1,-3,3,-2,-1,-3,-2
15:41:14.256412,-4,-1,-3,-2,-2,-2,-4,-1
15:41:14.270404,-1,2,-3,-8,-3,1,-2,-1
15:41:14.278399,0,-5,0,4,0,-5,-2,-4
15:41:14.300386,3,-3,-1,-2,-6,-5,-2,1
15:41:14.300386,2,-1,-2,-1,-1,-2,0,-1
15:41:14.315376,-2,-2,1,-1,-2,-1,-3,-3
15:41:14.316377,-2,0,-2,-2,2,2,-3,-2
15:41:14.337362,-3,-2,-2,-1,2,-3,-3,1
15:41:14.338362,0,-3,1,-4,0,-1,-3,0
15:41:14.353353,0,-1,0,1,1,-3,-1,0
15:41:14.360349,-3,-2,-1,-1,3,5,2,-5
15:41:14.375339,0,0,-1,5,11,2,1,-1
15:41:14.376338,2,1,1,0,-3,0,2,3
15:41:14.390329,-2,0,-1,0,5,-1,0,-1
15:41:14.398323,-1,-3,-3,-4,-1,-1,-4,1
15:41:14.420310,-2,2,0,1,-1,-3,-3,1
15:41:14.420310,-2,-3,-1,-3,-1,-1,2,-6
15:41:14.435300,-1,-2,-1,1,-3,-5,-3,-1
15:41:14.436300,3,0,-1,-3,0,1,-1,-1
15:41:14.450292,-3,-1,1,2,-3,1,0,0
15:41:14.458288,-5,-3,-3,-8,-7,-1,1,-4
15:41:14.473277,-3,-3,-1,-2,-1,0,-2,0
15:41:14.480273,-3,0,-2,-3,0,-1,-4,-4
15:41:14.495264,-2,0,0,-1,2,2,1,-1
15:41:14.503259,-1,-2,0,-3,-2,-2,-1,3
15:41:14.518251,-1,-5,-3,-2,-3,-1,-3,1
15:41:14.518251,3,2,-1,5,1,-1,1,0
15:41:14.533240,0,1,-2,-2,0,-1,-2,0
15:41:14.541235,0,-1,-3,-1,0,1,-1,3
15:41:14.555226,-1,-1,-2,-1,-1,-1,-3,-5
15:41:14.563221,1,0,2,0,2,2,-2,-1
15:41:14.578231,-2,-3,0,0,6,-1,0,0
15:41:14.578231,-3,-4,-3,-5,-5,0,-1,-3
15:41:14.593204,-2,-3,2,-3,-1,2,-1,0
15:41:14.600198,-1,-2,-1,-2,-3,1,0,-1
15:41:14.615189,0,1,-1,-1,0,0,-1,4
15:41:14.623185,-1,0,-3,-3,-6,1,-2,-1
15:41:14.645171,2,3,-2,-7,-2,-2,-1,0
15:41:14.646171,-3,0,0,2,6,-1,-3,-2
15:41:14.655165,-1,-5,0,-2,-2,0,-1,0
15:41:14.660162,1,-1,-3,-1,1,-2,1,1
15:41:14.675153,-2,-2,-2,-3,-4,2,1,-1
15:41:14.683148,-1,-1,0,2,-1,-4,-1,2
15:41:14.698137,0,-1,-3,-1,-1,3,-1,-1
15:41:14.698137,-1,1,0,2,5,-7,-1,-1
15:41:14.713128,-2,-4,-2,-3,-2,1,-2,-3
15:41:14.720126,0,0,-6,-1,-1,-3,-1,-5
15:41:14.735116,-3,1,-2,0,-1,0,-2,0
15:41:14.743110,-2,3,1,8,7,0,-3,1
15:41:14.758102,-3,-1,-2,-1,-3,-3,-1,-2
15:41:14.758102,-1,-2,-2,-4,0,-1,-1,0
15:41:14.773092,-1,-2,1,-4,-2,-3,-2,0
15:41:14.780087,1,-1,-1,0,1,1,-2,-2
15:41:14.796078,1,0,-1,1,-5,-4,-2,2
15:41:14.803074,2,-2,-1,0,-2,-3,2,-4
15:41:14.818064,-2,0,1,-3,-1,-1,-2,-2
15:41:14.818064,-1,-2,-2,2,5,1,-1,-1
15:41:14.833054,-3,-5,0,3,-10,-3,-3,0
15:41:14.841050,-5,-5,-4,3,1,-4,-5,-5
15:41:14.855040,-4,-4,-5,-8,-6,1,-5,-6
15:41:14.863036,1,-1,-1,4,-2,-1,-3,2
15:41:14.878026,1,3,1,1,0,-1,-2,-1
15:41:14.878026,-1,-2,0,-2,-4,-4,-3,1
15:41:14.893016,3,2,0,-2,-2,-3,-2,-1
15:41:14.900013,-2,-2,-1,-2,-7,-2,-1,1
15:41:14.922999,0,0,1,-2,4,0,-3,-1
15:41:14.923999,0,-2,1,-1,-8,-5,1,-2
15:41:14.937990,3,0,0,0,7,1,-3,-3
15:41:14.937990,0,-3,-1,0,1,1,0,-4
15:41:14.952980,1,-1,-1,-1,-4,-2,1,-2
15:41:14.959976,-1,5,1,0,0,-2,-2,-2
15:41:14.974967,1,-2,0,-6,-7,-2,-2,-1
15:41:14.982961,-2,1,-1,0,0,0,-1,-1
15:41:14.997953,0,-3,-3,-7,1,0,-2,0
15:41:14.997953,-1,-2,2,1,2,1,-1,-2
15:41:15.019938,-2,0,-3,-4,-1,0,-1,0
15:41:15.020940,-4,-2,-2,-3,1,0,-1,0
15:41:15.035928,1,-2,-1,-4,0,-1,-2,2
15:41:15.042923,0,0,-1,0,0,-1,0,-1
15:41:15.058915,-1,0,-4,-2,-4,-2,-2,-1
15:41:15.058915,-3,2,-1,-2,-1,-1,-3,0
15:41:15.073906,0,1,1,0,2,-2,-1,1
15:41:15.080900,-1,5,-1,-5,-9,1,-1,-2
15:41:15.095891,-1,-4,-1,3,6,-1,-1,2
15:41:15.102886,-1,1,1,-4,1,0,2,1
15:41:15.117878,1,2,1,-1,-1,-2,-5,-2
15:41:15.117878,-1,-3,1,3,-4,-1,-2,-3
15:41:15.132868,0,1,0,0,-4,-1,-1,-1
15:41:15.140863,-2,-1,-2,-3,-1,-3,-2,-2
15:41:15.155854,-1,2,-1,1,2,-2,0,0
15:41:15.162851,3,-2,-3,1,1,1,2,0
15:41:15.177841,-1,3,1,9,7,-3,-3,-1
15:41:15.178839,-1,-1,-1,-4,-3,-1,-1,0
15:41:15.192859,-3,3,-1,0,-2,-6,-3,-4
15:41:15.200827,-5,-1,-2,-1,0,-3,-1,0
15:41:15.215836,-4,-1,-1,-1,-1,-3,-2,-2
15:41:15.222813,0,2,-1,1,-2,-1,0,-1
15:41:15.237804,-1,-3,1,2,-1,-1,-1,0
15:41:15.237804,1,1,0,3,0,-1,0,-1
15:41:15.252793,0,1,-3,-5,-1,0,0,-2
15:41:15.260790,-2,-1,-3,-3,-7,2,1,-1
15:41:15.275788,4,-1,1,6,1,-2,-3,-3
15:41:15.282779,-4,0,0,2,3,0,0,1
15:41:15.297766,1,1,0,-2,1,1,0,1
15:41:15.298766,0,-2,-3,-3,0,2,-2,-2
15:41:15.312774,0,1,0,-1,0,-1,-4,-1
15:41:15.320773,1,-1,-1,-1,-2,-3,0,-3
15:41:15.335744,-1,-6,-3,-2,6,1,-1,-1
15:41:15.342742,3,0,-1,1,0,5,-3,-1
15:41:15.365732,2,1,-1,0,4,2,0,2
15:41:15.365732,2,-1,-4,-1,3,1,-1,0
15:41:15.372721,-1,-2,0,1,0,-3,-3,-3
15:41:15.380715,0,1,-2,-1,-7,-2,0,1
15:41:15.395706,-3,1,-2,-3,3,-2,-1,-2
15:41:15.402708,-2,1,0,0,-1,0,-2,1
15:41:15.417703,0,2,0,-1,0,0,-4,2
15:41:15.418692,-2,-2,-1,1,-1,0,-4,0
15:41:15.432707,-1,-3,-2,-5,-5,-2,-3,-1
15:41:15.441679,-1,-2,0,0,6,-3,-1,-1
15:41:15.455678,2,0,1,8,-1,-1,1,1
15:41:15.462664,-5,-4,0,-1,-4,-4,-3,0
15:41:15.478655,-1,-3,0,-4,-3,-1,-2,0
15:41:15.485650,-1,-1,-1,1,-4,-1,-3,-3
15:41:15.500651,-3,-2,-1,-1,-1,0,-3,1
15:41:15.500651,-5,-5,-2,-4,-3,-2,-4,-2
15:41:15.515630,0,2,0,2,-2,-5,-1,-1
15:41:15.522627,-2,-4,-3,-5,-1,-4,0,-1
15:41:15.537620,-1,2,1,-1,2,1,0,-4
15:41:15.545612,-3,-2,-1,-1,-2,-1,-3,1
15:41:15.560605,-4,0,0,-1,2,4,-1,-3
15:41:15.560605,-4,0,-4,0,-4,-1,-3,-5
15:41:15.575595,-4,-2,0,-5,0,0,-2,0
15:41:15.582592,2,-1,-3,-1,2,0,1,0
15:41:15.598579,-5,-3,-3,-7,-8,-1,-3,-3
15:41:15.605575,0,-2,1,-1,-2,-3,-3,0
15:41:15.620567,1,-1,-1,-1,-1,-1,-1,0
15:41:15.620567,-1,-1,-1,-1,-2,-1,-2,-2
15:41:15.642615,1,2,-1,-1,1,-3,0,0
15:41:15.643552,-2,-2,-4,-1,-5,0,-3,-4
15:41:15.658542,-1,-2,-1,-3,1,-2,-2,-3
15:41:15.665540,0,-1,-3,0,1,-1,-3,0
15:41:15.680528,0,2,2,4,-1,-2,0,2
15:41:15.680528,3,-1,1,2,2,4,-3,2
15:41:15.695520,0,1,0,-1,1,-1,-2,-1
15:41:15.702520,-2,-3,-1,-4,-8,-3,-2,1
15:41:15.718509,-3,-2,0,-1,6,-2,0,-1
15:41:15.725501,-3,-1,-2,-1,-7,-3,-2,-6
15:41:15.740495,1,-1,0,-1,-2,1,1,-1
15:41:15.741493,1,-1,1,-2,-1,-3,-1,-3
15:41:15.755485,-3,-3,0,-2,-4,-3,-2,-1
15:41:15.763480,-5,-5,-1,-3,-2,-3,-4,-3
15:41:15.778472,0,-4,-2,-1,-4,-3,0,-2
15:41:15.785465,1,0,-2,0,-2,-5,-3,-2
15:41:15.800458,-1,-3,-4,0,-3,-4,-2,-1
15:41:15.801454,1,-3,-4,-1,-6,1,3,-2
15:41:15.815448,2,3,3,3,7,0,0,0
15:41:15.823443,0,0,-1,-3,-5,-5,-3,0
15:41:15.838435,0,0,2,-1,1,-3,-3,-2
15:41:15.846427,0,1,-1,-2,-6,-1,0,-2
15:41:15.860421,0,0,-5,-4,-4,2,1,1
15:41:15.861417,2,-2,-2,-1,-6,-5,-1,-3
15:41:15.875410,-1,-2,-1,0,3,0,3,-1
15:41:15.883406,-3,-2,0,-8,-5,0,-1,-3
15:41:15.898397,4,-1,3,7,-5,1,0,2
15:41:15.905389,-3,0,-1,0,7,-3,-2,-2
15:41:15.920379,-3,2,-2,1,6,1,2,-1
15:41:15.921379,-1,-4,-6,-24,-17,0,-2,0
15:41:15.935371,-7,-4,0,-11,-5,-3,-4,-5
15:41:15.943367,0,0,-2,3,2,5,-1,-1
15:41:15.958356,-1,-3,-2,15,-2,-2,-2,-2
15:41:15.965352,-1,-1,-1,3,-2,-1,1,1
15:41:15.980344,-2,0,-6,-7,0,-3,1,-4
15:41:15.980344,-2,-1,3,1,-2,-6,-4,-1
15:41:15.995333,0,-2,-2,-4,-9,1,0,-1
15:41:16.003329,-4,-1,-5,-6,1,-2,-1,-4
15:41:16.018320,1,1,-1,4,-2,1,-1,-1
15:41:16.025353,-1,1,3,8,2,-1,1,-1
15:41:16.040306,3,1,-6,-3,2,1,1,3
15:41:16.055296,2,6,23,-6,-6,-4,-2,0
15:41:16.056297,2,-4,-10,-5,-1,1,4,4
15:41:16.070370,0,2,10,16,-7,-4,0,-1
15:41:16.078283,-3,-2,-2,1,2,-4,-3,0
15:41:16.085281,1,2,5,-9,-4,-2,1,0
15:41:16.100271,0,2,0,3,-4,1,1,2
15:41:16.108264,-1,-1,-2,-1,-9,-6,-2,-2
15:41:16.115262,1,1,-1,2,1,0,-1,-1
15:41:16.123257,-1,-1,7,4,-6,-4,-4,1
15:41:16.138246,-2,0,-11,-8,2,-1,-2,-3
15:41:16.145243,-4,-5,3,7,1,-4,-3,-7
15:41:16.160243,2,1,4,-8,-5,-1,0,1
15:41:16.175222,1,-1,-5,1,0,-2,1,1
15:41:16.176224,-1,-4,-8,-6,-4,-4,1,-3
15:41:16.183218,-5,-3,19,30,-4,-5,-2,-1
15:41:16.198209,4,6,24,6,-6,4,2,3
15:41:16.205205,-3,-9,-39,-24,12,-1,2,-2
15:41:16.220196,3,7,35,25,-27,-4,3,0
15:41:16.228190,-4,-8,-42,-71,19,-4,-2,-7
15:41:16.235192,-5,1,4,111,37,1,-4,0
15:41:16.243181,-9,-8,44,44,-32,-12,-5,-8
15:41:16.258172,9,19,21,19,43,21,10,10
15:41:16.265191,-6,-14,3,-118,-17,-6,0,-1
15:41:16.280159,8,18,-21,-128,67,27,-1,-1
15:41:16.288152,8,1,64,-77,11,-17,-1,9
15:41:16.295150,-23,-33,-15,41,31,-18,-11,-13
15:41:16.303143,13,35,95,-3,-128,16,10,6
15:41:16.318132,4,1,20,-128,-128,-63,-11,-3
15:41:16.325128,2,1,-3,-13,-9,33,8,3
15:41:16.341128,-1,-23,-56,-42,-61,-17,-3,4
15:41:16.348115,-13,-13,-55,52,-128,-19,-5,-9
15:41:16.363121,-21,-31,-50,11,-128,-35,-12,-15
15:41:16.363121,-30,-34,-90,-128,98,46,-8,-18
15:41:16.378097,-4,-9,59,127,-128,-128,-24,-11
15:41:16.385094,-13,-35,-128,-128,127,-32,-21,-9
15:41:16.400085,-19,-26,87,127,127,77,-1,-12
15:41:16.408078,57,96,67,-128,127,59,26,34
15:41:16.423077,-68,-109,15,127,127,-22,-42,-43
15:41:16.423077,30,51,52,-40,127,71,30,21
15:41:16.438060,-1,-47,-26,127,127,-38,2,11
15:41:16.445103,-2,12,0,-128,-49,7,-2,-8
15:41:16.461044,0,-16,2,9,2,5,-4,-1
15:41:16.476036,47,88,-37,-92,-128,-11,16,33
15:41:16.490031,-101,-128,-17,0,127,5,-28,-59
15:41:16.491026,48,85,6,-128,-118,0,14,26
15:41:16.498024,-14,-46,0,127,-73,-28,-7,-12
15:41:16.505020,37,25,-44,-128,-128,-106,0,7
15:41:16.521011,-37,-68,29,127,127,108,-11,-25
15:41:16.528004,-34,-22,-128,-128,-128,-72,-10,-14
15:41:16.542997,70,127,127,-128,127,37,11,13
15:41:16.543993,-38,-56,-128,127,116,127,17,-2
15:41:16.558988,-54,-33,-128,-128,-128,-128,-27,-30
15:41:16.565983,-2,16,47,127,127,107,-12,-12
15:41:16.595965,6,-60,-76,-128,127,127,40,27
15:41:16.595965,37,19,-2,127,17,52,7,7
15:41:16.602959,80,127,118,-128,-128,-128,-6,15
15:41:16.603960,76,127,127,-24,127,-128,-3,17
15:41:16.618951,-110,-128,-128,127,-128,-2,-36,-48
15:41:16.625945,-80,-128,-68,93,116,78,-10,-27
15:41:16.640936,84,127,98,50,-128,-43,-4,14
15:41:16.647930,10,22,-44,-128,95,-103,-3,4
15:41:16.662923,-29,-73,63,127,-128,65,4,-8
15:41:16.663919,16,38,18,-128,-128,19,-5,2
15:41:16.678913,-14,-2,30,71,-128,-25,-2,-7
15:41:16.685906,7,2,-47,-16,127,14,6,2
15:41:16.700900,22,50,73,127,-92,-53,3,5
15:41:16.708892,28,73,98,127,127,65,11,9
15:41:16.715890,29,55,42,122,114,101,18,12
15:41:16.723884,15,62,34,-10,-113,-95,-3,-2
15:41:16.738873,-26,-58,-59,-128,-128,-128,-11,-6
15:41:16.745871,3,27,-43,-128,-128,-30,-17,-9
15:41:16.753863,-20,-35,-73,-128,127,-64,-11,-10
15:41:16.768857,8,2,-14,58,-128,-5,3,0
15:41:16.775852,-71,-117,-29,47,75,66,-22,-38
15:41:16.783848,20,17,-12,-128,-128,-64,7,15
15:41:16.798838,-69,-120,-70,16,125,104,-11,-27
15:41:16.805832,9,21,-73,-128,-93,-40,-3,2
15:41:16.813827,2,11,6,72,127,38,6,1
15:41:16.828820,-19,-37,-27,3,121,-36,-7,-9
15:41:16.835816,-7,-33,-38,-128,-128,-43,-5,0
15:41:16.843811,12,30,40,127,127,60,8,2
15:41:16.858798,-54,-79,-76,-80,-128,-19,-15,-26
15:41:16.865797,5,16,19,127,-62,-10,2,3
15:41:16.873789,-13,3,27,127,127,51,-6,-12
15:41:16.888780,19,41,62,-93,127,35,12,11
15:41:16.895778,-9,-1,-5,-119,-115,-13,-5,-6
15:41:16.903771,8,5,-21,-69,44,57,11,10
15:41:16.917764,42,71,69,35,127,-47,9,22
15:41:16.925758,-3,9,-7,-128,-114,-24,-4,-4
15:41:16.932755,12,32,45,33,-70,-68,0,2
15:41:16.947746,17,36,16,-128,64,-80,-5,5
15:41:16.955739,-3,-7,15,127,-15,18,0,-2
15:41:16.962736,-18,-24,29,127,127,13,-3,-11
15:41:16.978727,20,45,97,100,-128,12,3,6
15:41:16.985723,16,29,2,-110,-128,-50,-1,6
15:41:17.000713,-26,-17,-6,-86,15,75,-13,-15
15:41:17.008707,19,17,43,127,127,-13,13,14
15:41:17.015704,-11,-19,0,2,-32,-52,0,1
15:41:17.023696,9,18,51,127,127,12,2,2
15:41:17.038690,-7,-15,-13,17,-44,40,-3,-6
15:41:17.045684,6,2,-16,-5,93,-18,6,8
15:41:17.068671,10,5,-27,-118,-95,-15,5,5
15:41:17.068671,-6,-7,4,72,127,-40,-4,0
15:41:17.075667,9,24,26,-61,-29,6,1,1
15:41:17.083662,-9,-16,-5,16,127,32,-7,-4
15:41:17.098652,-23,-45,-52,-47,-128,-44,-5,-8
15:41:17.105648,9,-1,-13,-37,-128,-73,0,4
15:41:17.120638,0,28,20,-20,-128,-9,-5,-11
15:41:17.128634,-1,-3,19,55,-128,-29,1,-1
15:41:17.135629,-13,-31,-28,-50,-47,14,-4,-4
15:41:17.143625,-4,-14,-16,-21,-69,-11,-3,-3
15:41:17.158615,0,4,4,22,42,-1,-2,0
15:41:17.165611,-16,-4,-16,-25,76,-41,-14,-8
15:41:17.180602,-15,-13,8,-37,-128,-60,-7,-8
15:41:17.195589,0,17,28,103,127,-3,-5,-3
15:41:17.196588,6,15,-8,-33,-128,-20,1,-1
15:41:17.202586,0,-4,-3,46,2,25,1,-1
15:41:17.217577,-9,-7,-3,3,-60,-38,-3,-5
15:41:17.225571,7,17,14,-5,-20,4,2,2
15:41:17.245558,-15,-54,-42,-34,44,13,4,1
15:41:17.248557,3,3,1,-11,-81,61,1,-4
15:41:17.256552,0,18,19,-17,-27,-12,-4,-6
15:41:17.263548,11,14,25,14,64,23,7,8
15:41:17.277538,9,9,-2,-6,127,7,2,3
15:41:17.285533,-2,3,-2,-25,-28,-4,-2,-1
15:41:17.308520,13,37,28,2,-20,-11,2,2
15:41:17.309519,-14,-25,-12,51,43,4,-6,-5
15:41:17.322510,15,27,11,-35,-41,-19,2,4
15:41:17.323511,-35,-54,-45,-1,77,3,-11,-17
15:41:17.337502,6,2,2,-18,47,11,6,8
15:41:17.345496,5,16,8,-38,-110,-13,2,0
15:41:17.360487,-3,-15,-28,-15,-128,-20,-5,1
15:41:17.367483,-5,-3,0,-7,2,7,-1,-2
15:41:17.375478,7,33,29,8,-1,4,-2,-3
15:41:17.392468,3,-10,4,39,89,44,4,3
15:41:17.398463,10,28,24,-40,-4,-5,-1,1
15:41:17.405458,19,41,24,-126,-128,-4,2,7
15:41:17.420449,-27,-38,-10,15,-116,-28,-11,-12
15:41:17.428445,5,-2,-3,-16,15,-9,2,5
15:41:17.435441,11,25,12,-26,-59,-9,2,3
15:41:17.450431,-15,-25,-9,14,-10,-2,-4,-6
15:41:17.459428,35,82,69,33,39,9,1,9
15:41:17.465422,-5,5,3,-85,-99,0,-3,-3
15:41:17.487408,28,70,61,127,84,-26,0,6
15:41:17.488407,-17,-19,5,33,127,8,-1,-9
15:41:17.495403,23,11,25,27,127,28,16,20
15:41:17.510394,-4,-13,-27,-56,-128,15,5,3
15:41:17.518389,5,22,6,-11,-128,-44,1,0
15:41:17.525385,13,14,-7,81,127,44,12,6
15:41:17.540376,21,29,12,-103,-128,0,10,13
15:41:17.548371,-9,1,-2,-56,-128,-32,-3,-3
15:41:17.555365,6,10,10,-16,-57,1,5,5
15:41:17.570356,-7,-18,-8,127,-28,0,2,2
15:41:17.585347,-7,1,3,-13,41,7,-1,-4
15:41:17.586347,1,-10,-14,96,127,51,10,9
15:41:17.600337,3,6,5,-16,-50,-8,-1,2
15:41:17.608334,1,4,2,-7,-1,-3,-1,-2
15:41:17.615330,2,5,7,60,99,16,0,3
15:41:17.637314,0,-3,-3,-6,-5,5,0,0
15:41:17.638315,4,-1,-3,-3,-2,-6,1,5
15:41:17.645310,2,5,10,7,8,2,20,-4
15:41:17.660330,2,4,1,0,-2,-15,-33,-26
15:41:17.668297,-17,6,7,7,21,29,73,7
15:41:17.675342,-40,-15,-12,-11,-15,-70,-27,18
15:41:17.690282,36,2,9,7,19,45,-38,62
15:41:17.705283,-128,1,9,19,28,38,127,-128
15:41:17.706273,-72,-86,-50,-50,-37,11,-128,-71
15:41:17.720339,-66,11,15,18,7,127,-101,127
15:41:17.728259,8,62,41,40,31,-38,126,95
15:41:17.743250,-128,-82,-38,-22,-19,87,127,-128
15:41:17.751245,61,42,5,-6,-17,-31,-24,103
15:41:17.765237,-54,18,26,34,44,42,127,-91
15:41:17.766238,5,-3,1,-1,10,14,-6,-17
15:41:17.781229,15,19,-13,-103,-75,13,-23,23
15:41:17.788224,13,5,50,127,127,2,-26,9
15:41:17.803216,-21,-12,25,-115,-34,-12,-9,38
15:41:17.811209,75,-35,-58,127,127,-5,4,-1
15:41:17.826198,-6,-51,30,-73,-73,-27,-34,8
15:41:17.826198,-14,119,55,-42,-28,8,7,-65
15:41:17.848188,-30,19,-52,-82,-10,-33,-12,-49
15:41:17.849188,-1,14,42,41,45,101,-1,119
15:41:17.863178,-106,-16,28,108,-128,-35,28,-46
15:41:17.871170,1,17,42,43,92,24,-2,0
15:41:17.886161,2,-4,-108,-128,-128,1,15,4
15:41:17.886161,-128,-27,-4,-29,-128,-128,77,-128
15:41:17.901152,-47,26,-26,125,59,14,-58,-41
15:41:17.908150,-77,2,12,103,-104,-59,2,-60
15:41:17.923141,118,14,36,34,127,38,65,107
15:41:17.931134,9,33,23,-31,-128,23,17,70
15:41:17.953123,-69,-42,-24,-122,46,-30,-82,-85
15:41:17.954120,18,14,10,75,8,-60,31,70
15:41:17.961117,-69,3,9,-35,121,26,-84,-5
15:41:17.968110,-53,33,53,34,59,6,24,-48
15:41:17.983104,-12,-19,-6,-64,-115,-57,-33,-46
15:41:17.991096,-19,13,-21,9,-128,-47,10,-3
15:41:18.006095,-58,-10,15,107,-128,-26,-72,-24
15:41:18.006095,100,14,-10,37,21,27,27,99
15:41:18.021077,-100,23,-44,-128,-104,39,10,-35
15:41:18.028074,43,-5,12,-90,-32,20,9,58
15:41:18.043065,7,9,-23,71,120,18,4,2
15:41:18.051062,-96,-33,-6,9,-128,-62,-23,-67
15:41:18.066050,-13,7,-3,6,127,15,12,-4
15:41:18.066050,-75,-5,-51,4,16,-14,25,-54
15:41:18.081043,15,19,2,-17,-44,-15,-21,16
15:41:18.088039,-23,-8,-19,-78,127,-1,-16,-34
15:41:18.103029,-20,-10,-2,127,127,4,-8,-23
15:41:18.111024,12,22,25,-128,111,35,62,46
15:41:18.126013,66,-11,7,66,7,13,88,10
15:41:18.126013,-16,-1,-17,-114,-128,-16,-3,13
15:41:18.141004,11,14,10,127,76,7,12,-6
15:41:18.148001,40,0,-78,-102,127,-25,-11,9
15:41:18.170985,-12,10,26,-30,-128,-7,-29,-10
15:41:18.170985,-3,-4,3,-100,-128,-17,12,3
15:41:18.185978,-76,28,7,22,-78,28,-12,-81
15:41:18.186975,-12,-2,-1,-8,40,-11,-12,-22
15:41:18.200969,23,13,-7,17,-43,1,-10,-8
15:41:18.207962,31,-3,-12,-18,41,-41,-35,-7
15:41:18.223954,-11,-7,-5,-64,-128,-22,-55,-5
15:41:18.230947,-14,-10,11,19,67,4,4,-8
15:41:18.245941,-24,12,1,-26,-102,-7,-4,-60
15:41:18.245941,3,-1,4,7,48,-78,-38,16
15:41:18.267927,1,12,4,-87,-128,-13,-10,-16
15:41:18.268924,-15,-12,-12,11,73,7,-1,-9
15:41:18.285913,0,8,6,-94,-128,-3,-11,2
15:41:18.290911,-3,-5,4,-29,45,-3,-8,-8
15:41:18.305901,2,-1,-29,-128,-128,-40,2,-2
15:41:18.312896,-24,-24,-25,-49,-46,-2,-16,-31
15:41:18.327887,18,0,-7,-11,-7,8,-30,32
15:41:18.328887,-25,16,13,24,-57,-10,-5,-17
15:41:18.342877,9,-2,2,-7,46,-2,0,21
15:41:18.350872,0,1,9,-128,-71,5,-18,-20
15:41:18.365863,-12,-10,8,57,-11,0,-8,-15
15:41:18.372859,2,5,17,33,-88,-5,6,3
15:41:18.387850,-6,6,12,40,115,18,17,9
15:41:18.388856,3,4,7,-1,4,1,0,2
15:41:18.402840,1,4,-7,-128,-128,-10,-12,-9
15:41:18.417853,21,3,-3,36,90,13,-20,5
15:41:18.425827,7,8,4,-49,-118,2,0,6
15:41:18.432822,-8,-5,0,20,-54,-2,-7,-7
15:41:18.447812,4,3,-6,67,26,6,7,12
15:41:18.448812,-2,-1,-12,-12,-71,-8,-9,-7
15:41:18.462830,-18,-2,24,43,31,12,26,-17
15:41:18.477831,10,3,-8,-65,11,23,21,24
15:41:18.485810,-16,4,1,-33,82,-2,2,-4
15:41:18.492797,-9,1,3,10,2,-3,-6,-9
15:41:18.507775,2,3,-4,-16,-26,-1,-10,-7
15:41:18.508776,-11,-3,-9,-58,-47,10,9,1
15:41:18.530762,0,1,2,-34,-44,-4,-3,0
15:41:18.530762,-8,-7,-11,-69,78,5,-6,-3
15:41:18.545752,3,4,7,18,-46,-10,-2,-1
15:41:18.552750,2,-2,-3,10,98,14,5,2
15:41:18.567738,-1,5,11,7,32,-3,1,-3
15:41:18.568739,-4,0,-3,-112,37,0,-11,-24
15:41:18.582731,-2,-2,1,-27,-57,-7,-4,0
15:41:18.590725,-3,-2,-3,-53,-13,-1,3,-2
15:41:18.605715,-7,-6,-4,17,21,-4,-6,-10
15:41:18.612719,2,3,0,-10,-22,-1,1,-2
15:41:18.627701,0,3,-3,-40,-35,-6,6,10
15:41:18.628701,-5,-3,0,14,36,-2,-6,-4
15:41:18.643691,-1,-3,0,-1,37,2,-1,-1
15:41:18.650687,0,1,-3,5,17,0,0,-2
15:41:18.665678,-3,0,1,-6,-11,-8,-3,-2
15:41:18.672673,2,1,0,-40,-30,-2,-1,0
15:41:18.687698,-7,-6,-3,10,15,-10,-7,-11
15:41:18.688664,0,2,4,101,47,8,3,3
15:41:18.702662,-3,-4,-2,27,-4,-8,-2,-2
15:41:18.710650,-1,2,1,4,7,0,2,-1
15:41:18.725641,0,-1,-1,-2,2,0,-8,-2
15:41:18.732660,-2,1,-3,-9,-3,-2,0,0
15:41:18.747630,1,0,2,5,4,-1,-3,-1
15:41:18.748627,-1,-4,2,2,-6,2,0,0
15:41:18.770613,-1,-2,0,-27,2,3,1,-1
15:41:18.770613,4,4,5,15,66,18,5,1
15:41:18.785604,2,-1,-5,-20,12,-6,-4,12
15:41:18.793599,3,3,-3,-115,-6,0,4,0
15:41:18.807589,-4,-7,-4,33,8,-4,-1,-4
15:41:18.808589,3,-1,1,-3,-13,-3,-3,-1
15:41:18.822581,1,1,-1,0,-7,-3,0,0
15:41:18.830576,-2,1,3,-1,0,-2,-1,2
15:41:18.845566,-4,-1,0,10,4,1,-6,-1
15:41:18.852564,-2,1,1,-20,2,0,-1,2
15:41:18.867555,0,4,4,14,-36,-2,1,1
15:41:18.868552,-8,-8,-4,5,40,3,-4,-2
15:41:18.882547,0,-1,-2,-7,-24,3,-3,0
15:41:18.890539,-1,-2,-3,-38,41,-2,-6,-4
15:41:18.905531,-2,1,1,17,3,1,-2,1
15:41:18.913528,2,2,-1,-3,5,6,2,1
15:41:18.928516,1,1,-3,1,-1,0,1,0
15:41:18.928516,1,-5,-3,-3,3,-4,-1,-1
15:41:18.943508,-2,1,2,8,1,-2,1,-2
15:41:18.950503,0,-1,-3,-21,-14,2,4,-3
15:41:18.965492,1,-1,-1,-10,-43,-3,0,-1
15:41:18.973490,-3,-4,-3,0,-8,-7,-2,-7
15:41:18.995473,-2,0,-1,8,14,1,-1,-3
15:41:18.996472,-2,0,-1,-1,4,0,1,-1
15:41:19.003471,0,-1,0,-5,-6,-2,-2,0
15:41:19.010466,-1,-1,-2,-1,-3,-3,-4,-3
15:41:19.025456,-1,-2,-2,0,-4,0,-1,-3
15:41:19.033453,1,-2,1,13,10,-1,6,2
15:41:19.048443,3,1,0,-20,-8,1,4,5
15:41:19.048443,-3,0,1,3,8,-4,-4,-1
15:41:19.063434,-1,-3,0,-7,0,4,2,2
15:41:19.070430,-1,1,-1,-4,-8,-3,-7,2
15:41:19.086420,-2,-3,-3,-7,2,1,-3,-2
15:41:19.101410,-2,-1,-2,-1,-48,-2,0,-3
15:41:19.108403,-1,-2,1,1,15,0,1,-5
15:41:19.109406,1,2,0,-3,3,2,2,3
15:41:19.123394,3,2,3,9,8,0,3,7
15:41:19.138387,-2,-2,1,-24,9,3,-7,-7
15:41:19.146383,-2,-1,-3,1,3,-2,7,-1
15:41:19.153378,-1,1,1,2,1,1,-2,-2
15:41:19.168366,0,-1,-1,0,-3,-4,-1,-2
15:41:19.168366,-1,-1,-1,0,2,-2,-2,-1
15:41:19.183360,-2,-2,-2,-9,2,4,-1,2
15:41:19.198350,-4,-1,-4,4,-8,2,2,-3
15:41:19.206345,-1,-1,-1,32,18,3,0,3
15:41:19.213340,-4,-3,-4,-33,-65,-11,-3,-3
15:41:19.228331,0,-1,-1,-43,10,2,2,0
15:41:19.235324,1,1,1,13,-5,-4,-11,-1
15:41:19.251315,-1,1,-3,-5,-42,-5,3,-5
15:41:19.251315,2,0,-2,4,-2,-1,-1,-1
15:41:19.266305,1,0,0,-7,-5,-3,-6,-2
15:41:19.273302,-1,0,2,-1,-48,-1,-3,6
15:41:19.288295,-1,3,2,-19,-5,-3,2,0
15:41:19.296291,-5,-4,2,-4,25,6,0,-3
15:41:19.311280,0,-2,1,-20,-13,-5,-7,-5
15:41:19.311280,-2,-1,3,0,-1,-1,1,1
15:41:19.333267,-1,-2,-3,5,5,-3,-2,-1
15:41:19.334266,1,-5,-1,-4,-4,-3,-2,-1
15:41:19.348257,0,1,-1,-3,0,4,3,-4
15:41:19.355253,-3,-3,-2,-3,-4,-7,-2,0
15:41:19.371243,-3,-3,0,3,2,2,0,-2
15:41:19.371243,-3,0,1,-2,2,-1,-6,-5
15:41:19.386234,2,1,0,24,8,2,1,-3
15:41:19.393229,0,-5,-1,3,-5,-7,-3,-2
15:41:19.408220,-4,-4,-2,18,-45,-6,-5,-4
15:41:19.416214,0,2,-3,3,4,-8,-14,1
15:41:19.431206,-3,-3,1,2,3,2,1,-3
15:41:19.432207,0,1,-1,-5,-3,0,-1,-2
15:41:19.446197,-1,-1,-1,-4,-2,1,-2,0
15:41:19.453192,1,-1,-1,-2,-7,1,-1,-4
15:41:19.468180,-3,-2,-2,0,1,1,-4,-2
15:41:19.475178,1,-3,-2,-3,-1,-1,3,-3
15:41:19.490166,-1,0,-3,2,3,0,2,-2
15:41:19.491165,-3,-2,3,-11,42,4,-1,0
15:41:19.505160,-5,-3,-3,-29,11,-4,-4,-4
15:41:19.513152,-2,-2,-4,-14,10,6,-4,1
15:41:19.528143,-2,-3,0,10,-4,-4,6,0
15:41:19.535150,-2,-1,-5,-3,-5,4,-3,0
15:41:19.550174,-5,-4,-3,-1,1,-7,-3,-2
15:41:19.551130,1,1,-2,1,-5,-4,-2,-2
15:41:19.565122,0,-1,1,-2,-3,0,-3,-3
15:41:19.573115,-1,0,-4,-30,-6,2,-5,-5
15:41:19.588106,1,-1,0,1,-9,-3,-1,2
15:41:19.595105,-2,0,1,13,18,3,0,-2
15:41:19.610095,1,0,0,-3,-3,-1,0,1
15:41:19.611092,-3,3,-2,-1,3,0,-1,4
15:41:19.625085,-3,-3,-4,16,1,-17,-16,-5
15:41:19.640074,1,0,3,0,7,10,6,3
15:41:19.648069,0,2,-1,-1,3,1,1,1
15:41:19.655066,-2,-1,0,4,-1,-2,2,-2
15:41:19.670057,2,0,1,-1,-2,-2,-1,4
15:41:19.671054,-1,-4,0,-8,-3,-3,-2,-1
15:41:19.685048,-3,0,-2,-27,4,4,0,1
15:41:19.693041,2,0,2,8,-10,-10,4,1
15:41:19.708032,-1,-3,-1,-7,6,2,0,-3
15:41:19.715033,-3,-5,-1,16,33,1,-3,-3
15:41:19.730031,-1,-4,2,8,6,-5,-1,-1
15:41:19.731016,1,2,-2,2,4,3,0,1
15:41:19.745035,-1,-2,-1,-2,-2,-1,3,2
15:41:19.753003,-3,2,0,-4,-2,-4,-11,-3
15:41:19.767994,2,-2,2,2,2,1,0,0
15:41:19.774992,1,0,0,7,7,-1,-1,5
15:41:19.789981,-2,-1,-3,1,0,0,1,-3
15:41:19.790980,0,-1,-2,6,11,4,-1,-1
15:41:19.805971,-1,0,-1,-8,-3,-2,0,-2
15:41:19.812966,0,0,-1,2,-57,-3,-2,1
15:41:19.827958,-2,-2,-3,16,13,1,1,-1
15:41:19.834957,1,-1,0,5,-1,-1,-2,1
15:41:19.849945,0,-2,1,-2,-1,2,0,3
15:41:19.850944,1,3,1,2,-5,-1,0,2
15:41:19.864936,-4,2,-2,-9,-6,-9,-4,-5
15:41:19.872928,-1,-1,0,-23,-12,-7,-1,-4
15:41:19.887919,-1,0,0,-2,4,-1,0,0
15:41:19.895915,0,-1,1,-1,-2,1,1,-1
15:41:19.910906,1,-3,-2,0,-2,1,1,-1
15:41:19.910906,-1,-2,0,3,-14,-1,-1,-2
15:41:19.925897,-1,1,0,1,20,2,-1,-1
15:41:19.932891,3,-1,-1,-47,-7,-3,0,2
15:41:19.947882,0,-2,0,14,20,-1,-5,-2
15:41:19.955878,-3,-5,-5,-5,-3,1,-3,-2
15:41:19.970868,2,1,3,17,1,-2,1,0
15:41:19.971868,-1,-1,-1,-3,-8,-2,-1,-3
15:41:19.985866,0,-1,2,4,2,-2,-2,-1
15:41:19.992858,-5,-4,0,1,3,2,-1,-1
15:41:20.007845,-2,0,0,-4,-1,2,0,0
15:41:20.015841,-3,0,1,4,0,3,1,0
15:41:20.030848,0,0,-1,4,-8,-3,-3,0
15:41:20.030848,0,-4,-1,-5,0,-1,-1,-1
15:41:20.052817,1,1,1,28,43,2,-1,2
15:41:20.053818,-2,2,0,10,9,-2,-1,0
15:41:20.067809,-1,1,0,-3,5,3,-2,-4
15:41:20.075815,3,5,2,3,5,2,3,3
15:41:20.089795,-2,-1,-2,-3,-4,-3,-1,-4
15:41:20.090795,-1,-2,1,0,8,0,0,2
15:41:20.105785,-3,-2,-1,-5,-3,-4,-2,-2
15:41:20.112791,0,-3,0,4,-12,-2,-1,0
15:41:20.127770,0,2,2,22,9,2,2,-1
15:41:20.135765,1,1,-2,-3,30,3,2,2
15:41:20.150758,-1,1,2,20,10,-4,2,1
15:41:20.150758,-1,-4,0,-3,-1,2,0,-4
15:41:20.165748,-1,-1,-3,-5,0,-1,-1,-4
15:41:20.172751,-3,0,1,-1,-1,2,-3,1
15:41:20.187793,-1,0,-2,-3,-5,-2,0,-1
15:41:20.195729,1,-3,2,2,3,1,-2,0
15:41:20.217715,0,1,3,-2,4,3,3,1
15:41:20.218715,-1,1,-2,-2,-10,-1,-4,-1
15:41:20.232705,2,1,-2,-27,-2,-1,3,1
15:41:20.233706,-4,-5,-1,8,8,-2,-3,-4
15:41:20.247703,-3,-3,0,1,-2,-5,0,2
15:41:20.255692,-1,1,-1,-1,-2,0,-1,-2
15:41:20.270683,0,-2,-2,-9,-2,2,0,-2
15:41:20.277680,2,0,0,-7,-1,-5,2,3
15:41:20.292668,-4,-1,-1,2,-20,-4,-3,-1
15:41:20.293668,1,-1,0,-1,10,3,0,2
15:41:20.307662,0,-1,0,-22,-48,-1,2,4
15:41:20.315655,-4,-2,1,20,16,-1,-4,-3
15:41:20.330646,0,-1,0,-1,-3,-1,-1,-3
15:41:20.337653,0,2,-4,2,-6,0,-1,-1
15:41:20.367664,-2,3,3,4,-1,1,2,1
15:41:20.368623,-1,-1,-2,3,-2,-2,1,0
15:41:20.369620,2,3,1,-7,8,3,3,3
15:41:20.375618,-1,-3,-1,9,9,0,-2,-3
15:41:20.390615,4,0,-3,-13,1,1,2,2
15:41:20.397607,-3,2,0,-2,-60,-9,0,-2
15:41:20.412597,-2,-1,-5,-37,0,0,1,-1
15:41:20.413593,1,-2,3,27,9,1,-1,-1
15:41:20.427587,-5,0,-1,0,1,1,-2,0
15:41:20.435581,-2,0,-1,-2,6,1,-1,-2
15:41:20.450571,-5,-2,-3,2,-7,-3,-1,-3
15:41:20.457569,-2,-3,-4,-5,7,3,-2,0
15:41:20.472558,-1,-1,0,13,-2,-8,1,-1
15:41:20.473557,-3,-4,-6,-4,3,2,-3,-3
15:41:20.487550,-3,-1,-1,-5,0,2,3,4
15:41:20.495543,0,0,1,1,0,-2,-3,-1
15:41:20.510534,0,-3,-2,-32,-7,1,-1,1
15:41:20.517531,-2,0,-3,12,2,-1,-7,-3
15:41:20.532522,-2,-2,0,0,1,1,1,-3
15:41:20.533520,-2,-3,0,0,-1,1,-2,-1
15:41:20.548509,-2,-1,0,-1,-1,-3,-1,-3
15:41:20.555506,-1,2,-2,-1,-4,1,0,1
15:41:20.570496,-3,-3,-5,-1,-2,0,1,-4
15:41:20.578491,-1,-3,-2,2,8,-1,-3,-1
15:41:20.593481,2,1,1,3,9,0,3,3
15:41:20.593481,-4,-1,-1,4,1,0,-5,-1
15:41:20.608472,-5,-4,-1,3,3,-2,0,1
15:41:20.615469,1,-1,0,-6,-8,-1,14,0
15:41:20.630466,3,1,4,12,11,3,-5,2
15:41:20.637457,-1,-2,-2,-22,-11,-2,-2,-5
15:41:20.652448,-2,0,-1,7,-54,-8,-1,1
15:41:20.653459,-1,-3,-2,-7,1,-3,-1,-3
15:41:20.668436,-5,-4,1,2,9,-1,-2,-1
15:41:20.675431,6,4,1,-1,-6,-5,0,3
15:41:20.690421,1,-1,3,4,0,-1,-6,0
15:41:20.697420,-1,0,-1,-5,-4,-1,-2,0
15:41:20.712412,0,2,-3,2,-1,4,1,3
15:41:20.713408,-3,-3,-1,-1,-1,-1,-1,-3
15:41:20.728399,2,-2,0,3,1,-2,-2,0
15:41:20.735395,0,2,3,13,2,3,3,2
15:41:20.750384,-1,3,-1,-2,21,0,11,-1
15:41:20.758383,0,1,0,0,14,-2,0,0
15:41:20.772370,1,1,0,1,-1,0,2,0
15:41:20.773370,-2,-2,0,0,-4,-5,7,-1
15:41:20.788362,-3,-1,-2,-1,-3,1,5,-1
15:41:20.795356,1,1,-2,1,-1,-1,5,4
15:41:20.810347,2,2,-2,-1,-1,-1,-3,-3
15:41:20.818343,-3,-4,-3,-2,2,0,-5,-3
15:41:20.833356,-1,-2,1,-3,-1,0,-1,-2
15:41:20.833356,-1,-1,-1,3,1,-3,0,0
15:41:20.848324,0,1,1,7,-6,1,1,-1
15:41:20.855318,1,4,4,3,6,3,4,6
15:41:20.870315,-3,-4,-5,-2,0,-3,-3,-5
15:41:20.885301,-4,-5,-4,4,-2,-2,-3,-4
15:41:20.893297,1,1,-1,-61,-19,6,5,2
15:41:20.893297,0,-2,0,19,10,-1,1,-3
15:41:20.908298,-2,0,-2,-3,1,-1,-10,-2
15:41:20.915300,-1,2,4,1,-10,0,1,1
15:41:20.930284,-1,0,1,1,9,3,7,-2
15:41:20.938269,-2,1,1,2,-42,-3,-1,1
15:41:20.953266,-3,2,-1,0,16,0,0,-2
15:41:20.953266,0,-1,-1,-1,2,3,1,-1
15:41:20.968250,2,3,1,1,4,1,1,1
15:41:20.975267,0,-1,-2,1,-3,-1,-1,-1
15:41:20.998232,-2,1,-2,0,0,-2,-5,-4
15:41:20.998232,-1,2,0,3,4,2,1,-3
15:41:21.013230,-1,0,-3,-1,0,-1,-4,-2
15:41:21.013230,-2,0,-1,4,-7,-3,0,0
15:41:21.028211,-1,-3,0,9,13,-1,-4,-2
15:41:21.035211,0,0,0,-2,2,4,7,0
15:41:21.050202,-5,2,0,-3,-5,-4,-3,-1
15:41:21.058194,1,-2,-4,-3,-5,-1,-4,0
15:41:21.073185,0,1,-2,1,-1,0,1,1
15:41:21.080191,-4,-2,-2,-5,-3,-1,-1,0
15:41:21.095170,-2,0,-2,-3,2,1,-1,0
15:41:21.096171,1,3,-2,15,7,2,-1,-4
15:41:21.110164,-2,0,1,4,6,-3,0,1
15:41:21.118157,0,0,1,0,0,-4,-2,-1
15:41:21.133148,-2,0,-3,-2,-1,0,2,-2
15:41:21.140144,-2,0,0,0,-1,-6,-13,7
15:41:21.155158,-2,-2,-2,0,-3,-4,-2,-5
15:41:21.156133,1,0,-1,-1,-2,3,-1,-1
15:41:21.170144,1,-2,-1,6,5,-1,2,-1
15:41:21.178120,0,-1,1,8,7,5,3,2
15:41:21.193111,0,2,-1,0,5,6,3,2
15:41:21.200108,-3,-2,-1,-2,-7,-1,-2,-1
15:41:21.215155,-2,-1,-1,-2,-13,-5,-4,-5
15:41:21.216130,3,1,1,-5,-5,-1,-7,-1
15:41:21.230090,-1,2,-2,-12,2,-1,1,0
15:41:21.238083,-4,-1,0,-2,-5,0,0,1
15:41:21.253074,0,-3,0,0,2,-2,-1,1
15:41:21.260071,-1,0,1,-1,-4,-1,0,1
15:41:21.275061,-4,-3,-1,-5,-2,-2,3,-1
15:41:21.276058,-2,-4,-1,-3,0,-2,0,-3
15:41:21.290049,-2,-1,-1,1,1,-3,4,1
15:41:21.298046,-3,-1,1,3,-1,4,0,-3
15:41:21.313036,1,0,-1,-1,-4,1,12,1
15:41:21.320034,1,0,1,0,-3,-7,-7,-4
15:41:21.335048,-4,1,0,5,7,-3,-3,-1
15:41:21.336021,-4,-5,0,-5,1,1,-1,-6
15:41:21.350016,-1,0,-3,5,-7,-1,2,2
15:41:21.365013,2,-2,0,19,12,-3,-8,-4
15:41:21.372999,-2,2,0,-1,-6,-2,0,2
15:41:21.380006,0,-1,1,3,2,-1,-2,-3
15:41:21.394987,-1,0,-2,-1,-3,-1,2,-4
15:41:21.395983,0,-1,-1,-2,1,-4,-2,2
15:41:21.410976,-1,-1,-2,-7,2,1,4,-2
15:41:21.417971,2,1,2,2,4,4,0,-2
15:41:21.432961,-1,-2,-2,-3,-3,0,7,0
15:41:21.440956,0,2,-1,-1,-2,-2,-1,-1
15:41:21.454952,1,1,-1,0,-1,0,0,1
15:41:21.455947,-5,0,-1,3,5,-1,-4,-2
15:41:21.477934,0,0,-2,-1,-6,-2,4,5
15:41:21.478946,-5,-4,-2,-3,-2,0,-2,-2
15:41:21.499922,0,2,-1,-27,-12,2,5,-5
15:41:21.500919,0,2,0,7,4,-5,-1,0
15:41:21.514913,3,2,0,3,5,7,9,12
15:41:21.515910,0,-1,0,-1,-2,0,-7,-5
15:41:21.530901,0,0,-1,1,-1,5,-1,1
15:41:21.537904,0,-3,-2,-2,0,1,-3,0
15:41:21.552886,-3,0,-1,5,-2,-4,-1,-3
15:41:21.567878,-7,-7,-2,4,9,0,-5,-7
15:41:21.582869,-2,-1,-1,-5,-4,3,-2,2
15:41:21.583874,-1,-3,3,-5,4,-1,0,-4
15:41:21.590870,4,0,-3,5,-3,-1,1,0
15:41:21.597859,-1,-3,0,0,2,-1,1,0
15:41:21.620845,-2,1,-1,0,1,6,4,0
15:41:21.620845,2,1,-1,-3,-4,2,-2,-3
15:41:21.635836,-2,-2,-4,-2,1,-2,0,0
15:41:21.635836,0,2,-2,-2,1,0,1,1
15:41:21.650831,3,1,3,3,5,-3,0,-1
15:41:21.657826,-6,-4,-3,-3,6,0,1,4
15:41:21.672813,-4,-2,-3,-5,-9,-3,-3,-5
15:41:21.680808,2,4,-2,0,2,-3,1,-1
15:41:21.695799,-1,-1,-4,-1,-3,2,-3,-3
15:41:21.695799,-3,-2,0,-4,4,6,-2,1
15:41:21.710789,-1,0,-1,0,3,-1,-1,0
15:41:21.725787,3,-1,-3,-12,-2,-1,-1,-1
15:41:21.732777,-3,0,-4,3,5,-3,-3,-3
15:41:21.740777,3,0,-1,0,5,0,-1,2
15:41:21.755761,-3,-2,-2,-8,-5,1,-1,2
15:41:21.755761,-3,-4,0,-2,1,-3,3,-3
15:41:21.770753,2,1,0,1,-7,-10,-5,1
15:41:21.777765,-4,-4,0,-1,-2,0,-4,0
15:41:21.792764,-1,0,-5,-5,-4,-1,-3,0
15:41:21.800734,1,-3,-1,-1,-3,-5,0,-3
15:41:21.815725,-2,-2,0,-3,-4,4,1,-6
15:41:21.815725,-1,-3,1,8,-4,-5,-1,-1
15:41:21.830715,-5,-2,-1,-19,-18,-1,-3,-1
15:41:21.845706,-1,-2,1,0,5,3,0,-5
15:41:21.852704,2,2,0,1,-2,-1,3,2
15:41:21.860697,-3,-2,0,7,6,1,0,-1
15:41:21.875687,-1,0,-1,-8,1,-2,-3,0
15:41:21.876693,2,2,0,2,4,-1,5,6
15:41:21.890678,-1,-2,-5,-4,-1,-6,-6,1
15:41:21.897679,-3,-2,-1,-2,-3,-2,0,-2
15:41:21.912689,1,4,0,1,3,0,1,2
15:41:21.920659,0,-4,-1,9,9,2,-4,-1
15:41:21.935650,0,4,4,-16,-12,0,0,4
15:41:21.935650,-1,-3,-6,-7,-5,-4,-1,-4
15:41:21.950641,0,0,-3,5,2,2,1,-1
15:41:21.957638,-1,-3,-2,0,-5,-4,-2,1
15:41:21.972627,-1,0,-4,-6,-5,-3,-2,-2
15:41:21.980622,-1,4,0,1,-3,1,-2,0
15:41:21.995613,-4,-1,-4,-5,2,3,-2,-2
15:41:21.995613,-3,-3,-1,-2,0,0,-3,0
15:41:22.010604,1,-1,-1,11,6,1,-7,-3
15:41:22.017626,-1,-2,0,-4,-8,0,-2,2
15:41:22.032592,1,-1,0,11,11,-1,0,0
15:41:22.040585,-1,-2,0,-2,5,1,6,-1
15:41:22.055576,2,-2,-3,-4,1,8,3,2
15:41:22.056574,0,-1,3,-5,-5,1,2,4
15:41:22.077564,-2,-2,-1,1,-1,3,6,2
15:41:22.078560,2,-1,1,-2,4,2,-2,2
15:41:22.093552,-1,-2,-2,1,0,-1,0,-1
15:41:22.107545,-4,-2,0,12,6,-1,1,2
15:41:22.115538,-3,1,-2,-8,-7,-2,2,-2
15:41:22.122534,1,1,-2,-9,-13,-2,3,-1
15:41:22.137529,0,-2,0,2,-6,-2,-3,-2
15:41:22.138524,1,-2,0,-7,0,0,-2,-2
15:41:22.152517,-4,0,-3,2,-1,2,0,-1
15:41:22.160511,-1,0,3,-4,-1,1,-3,1
15:41:22.175501,-1,-2,1,1,-5,2,6,-2
15:41:22.182506,-2,0,-1,7,-4,0,-3,2
15:41:22.197503,0,0,1,7,6,3,3,2
15:41:22.198487,1,-2,1,2,3,-1,-5,-3
15:41:22.212505,-3,-3,0,-5,-3,-4,-5,-3
15:41:22.220472,4,-3,-1,-22,-25,-2,3,2
15:41:22.235464,-4,-4,-3,3,7,-3,-9,-5
15:41:22.243459,0,2,-1,-1,-1,3,2,-3
15:41:22.258450,1,0,-1,-2,1,3,-1,-1
15:41:22.259450,-1,-1,1,4,-2,1,1,-3
15:41:22.273440,-1,-2,0,-1,2,-2,1,0
15:41:22.280436,-1,-3,-2,-1,-7,-4,-3,-6
15:41:22.302427,1,1,0,0,5,3,2,2
15:41:22.303424,-1,-1,0,0,-4,-4,-3,-1
15:41:22.317415,-2,1,0,3,3,-1,1,-1
15:41:22.318422,0,0,-1,13,6,3,0,1
15:41:22.332406,-2,0,0,-21,-23,-1,1,4
15:41:22.340399,-3,-3,-1,8,14,-2,-3,-1
15:41:22.355390,-2,-1,-2,-7,-2,4,-3,0
15:41:22.363385,-1,1,-1,-4,-5,-4,0,0
15:41:22.378376,-2,-3,-1,1,-1,2,-4,0
15:41:22.378376,0,-3,-6,0,3,0,-1,2
15:41:22.393366,-1,-3,-3,1,-1,-1,-2,-1
15:41:22.400361,-3,-1,-1,0,0,0,1,-2
15:41:22.415351,1,-3,-4,-2,-4,-4,-4,-3
15:41:22.422353,1,-1,1,19,4,-1,0,2
15:41:22.438337,-6,-3,-1,2,6,1,0,-1
15:41:22.439338,-2,1,-3,-4,-1,-2,-2,-3
15:41:22.453329,3,2,-4,-5,-3,-1,0,2
15:41:22.460339,-2,-2,1,-3,-4,-3,0,-3
15:41:22.475315,-3,-2,-3,0,2,3,3,-2
15:41:22.483310,0,1,-4,-1,-7,-3,-2,2
15:41:22.498301,-3,1,-1,0,-3,-3,-2,-1
15:41:22.498301,2,-3,0,-1,-2,2,1,-2
15:41:22.513300,-3,-1,0,2,-2,-1,-2,-2
15:41:22.520286,2,-4,-4,-10,2,2,-1,-1
15:41:22.535278,0,0,1,-19,0,-3,-1,-1
15:41:22.543274,0,-2,-2,5,10,-1,-1,-5
15:41:22.558264,0,-1,-1,2,1,2,2,0
15:41:22.558264,1,2,-1,0,-2,-5,-1,0
15:41:22.573253,-2,-5,-2,-2,-2,1,-1,0
15:41:22.580263,0,0,1,-1,-2,-4,-2,0
15:41:22.595277,2,-2,-1,-2,-6,-4,-1,-3
15:41:22.603247,-3,-2,-5,1,5,-1,-1,-1
15:41:22.618233,2,0,-1,-4,-2,-2,-2,-1
15:41:22.618233,-2,-1,0,10,9,-2,-3,-1
15:41:22.633217,-1,-3,-3,-3,-2,2,1,-3
15:41:22.648208,-1,0,2,3,6,5,1,0
15:41:22.655206,-1,-2,-3,0,-7,-9,-2,-3
15:41:22.663199,1,1,-1,-2,2,-1,-2,-3
15:41:22.678190,-3,0,-1,-3,-2,-1,-5,0
15:41:22.678190,2,1,2,1,0,1,-1,-1
15:41:22.693180,-1,-2,-1,-3,-8,-2,1,0
15:41:22.701178,0,1,-2,4,1,0,-1,-3
15:41:22.716169,-5,-5,-2,0,6,-2,-1,-5
15:41:22.723164,3,-1,1,-4,-8,-1,0,1
15:41:22.738155,1,3,3,11,-1,-5,-1,3
15:41:22.739152,-3,-4,0,-1,-2,-1,-3,-4
15:41:22.753145,0,0,-2,-4,-4,0,1,0
15:41:22.761141,1,-3,-2,0,-4,-1,-4,-2
15:41:22.776131,0,0,-2,-2,-2,3,2,1
15:41:22.783127,2,0,0,0,-1,1,3,2
15:41:22.798118,-1,-1,-2,-2,9,-1,-3,-2
15:41:22.799115,-1,-1,0,1,1,0,-1,0
15:41:22.813108,1,-1,-1,-10,-4,2,0,0
15:41:22.821103,0,-2,1,-29,-19,-5,0,-3
15:41:22.836094,-2,-3,-1,7,6,-2,-2,-6
15:41:22.843090,0,0,-1,-6,-4,-3,-3,-1
15:41:22.858081,-1,0,-1,-5,-10,0,-3,2
15:41:22.859079,2,0,1,2,7,-3,0,1
15:41:22.873071,-3,-5,-1,-2,4,1,-1,-3
15:41:22.881066,0,-1,-1,0,0,-3,-3,0
15:41:22.896057,0,-1,2,-1,-13,-5,-2,0
15:41:22.903051,-2,-1,-3,-6,2,-3,-1,-2
15:41:22.918044,-4,-3,-3,7,2,1,0,-2
15:41:22.919042,-1,0,-2,-11,0,-4,0,1
15:41:22.933034,-3,-3,-4,0,-7,-5,0,-2
15:41:22.948023,-1,0,0,2,5,2,3,1
15:41:22.956017,1,-2,-1,1,-1,0,-2,-3
15:41:22.963015,0,-3,1,-2,0,-2,-1,-3
15:41:22.978006,-1,2,-3,-5,-7,-4,1,-1
15:41:22.979005,0,0,0,3,-1,0,-1,1
15:41:22.992996,-2,2,1,-3,-2,0,-4,-2
15:41:23.000992,2,-1,1,-5,1,-2,-1,1
15:41:23.015983,2,1,0,-4,-5,1,-1,0
15:41:23.022976,-2,-1,-2,-25,-18,-5,2,-3
15:41:23.037968,2,-1,-1,6,11,1,1,-3
15:41:23.045964,-1,-1,-2,-4,2,4,0,-2
15:41:23.067951,0,2,0,-3,-2,-1,-2,-1
15:41:23.068950,4,-1,-1,0,-2,1,1,2
15:41:23.075945,-2,-1,-3,5,4,0,-3,-5
15:41:23.083941,-4,-5,-1,-3,-1,-4,-3,-3
15:41:23.097932,-1,-1,-3,-14,-2,-1,1,-2
15:41:23.105927,-3,0,-1,-22,-20,-4,-2,1
15:41:23.120917,1,-1,-2,1,7,0,-1,-1
15:41:23.120917,0,-4,-1,5,8,-2,-2,-3
15:41:23.135908,-3,1,-3,-5,-2,-1,-1,-1
15:41:23.143905,2,2,0,3,0,2,0,1
15:41:23.157891,-3,-4,-1,-1,2,2,1,-1
15:41:23.165889,-4,0,-2,-4,-7,-3,-3,-3
15:41:23.180881,-5,-3,0,-2,-5,2,-3,-4
15:41:23.180881,-1,-1,1,15,9,0,0,-2
15:41:23.195871,-2,-2,-5,-21,-19,-4,-2,-4
15:41:23.202870,-2,-3,-2,0,0,-3,0,1
15:41:23.217855,-1,-2,-1,0,1,2,0,-4
15:41:23.225852,1,-4,-2,-1,-8,-3,-3,-2
15:41:23.247837,-4,0,-1,5,2,-1,0,0
15:41:23.248838,0,-1,-3,0,0,-3,-1,-2
15:41:23.263829,-2,-1,-5,-1,1,0,1,1
15:41:23.263829,-2,-2,-1,-3,-8,2,-3,-1
15:41:23.278820,0,-2,1,3,1,-2,-2,2
15:41:23.285815,-4,-3,-3,-1,2,0,-4,-3
15:41:23.300806,0,-1,2,-14,-13,0,-1,0
15:41:23.300806,-3,-2,-3,-2,-10,-2,-1,-1
15:41:23.315797,3,1,4,0,3,0,1,-1
15:41:23.322790,-5,-1,-3,-3,-3,-1,-6,-5
15:41:23.338780,1,1,-2,-3,-1,3,0,0
15:41:23.345778,-2,-1,-4,2,2,-3,-3,-4
15:41:23.360769,-4,-3,-1,-6,-4,0,-3,-3
15:41:23.361768,1,0,2,5,6,1,-2,2
15:41:23.375759,2,-1,0,-3,1,1,3,3
15:41:23.383755,-3,-1,1,11,-2,-3,-4,-3
15:41:23.398747,-3,0,-5,7,5,-1,-4,-5
15:41:23.405741,1,-5,-2,4,3,1,0,-2
15:41:23.420731,0,1,0,3,2,1,-1,1
15:41:23.421730,-2,-1,1,-1,-3,-1,-1,0
15:41:23.435722,0,0,0,3,3,-2,0,0
15:41:23.443717,3,0,-2,-3,-3,3,2,2
15:41:23.458708,-1,-1,-1,4,-7,-4,-3,-2
15:41:23.465703,-1,1,-1,-4,-4,-1,-1,-1
15:41:23.480694,1,2,0,15,10,-1,1,-3
15:41:23.481691,-1,0,-1,-9,-8,1,-3,2
15:41:23.495685,0,1,0,-1,-2,-3,-3,1
15:41:23.503682,1,0,0,8,3,0,2,-1
15:41:23.518671,0,0,-2,-5,-6,-6,-3,0
15:41:23.525666,-3,-2,0,1,-3,-3,-2,-4
15:41:23.540657,0,-1,0,-1,1,-2,1,0
15:41:23.541657,0,2,0,1,-3,-1,1,1
15:41:23.555648,5,3,2,4,0,0,-1,0
15:41:23.563643,-2,-2,0,11,0,1,-4,-2
15:41:23.585629,-2,-1,-2,-15,-9,1,0,1
15:41:23.586626,-2,0,-1,-3,1,2,-2,-1
15:41:23.600620,-1,0,2,-3,-5,-4,0,-1
15:41:23.601617,-1,0,-1,-10,-4,0,1,-1
15:41:23.615610,-3,1,0,1,4,0,-3,-1
15:41:23.623604,1,2,3,-6,0,-1,3,4
15:41:23.638597,-2,-2,-4,-8,-12,0,1,1
15:41:23.645592,2,0,-2,1,2,-1,-2,0
15:41:23.660583,-1,-4,1,8,6,0,-1,0
15:41:23.661582,2,-3,1,-24,-9,0,0,-3
15:41:23.675573,-1,-1,0,6,6,-3,0,-2
15:41:23.683565,-1,-2,1,1,-3,-1,-5,-1
15:41:23.698560,-2,2,-3,-1,-5,-1,2,-2
15:41:23.705552,-1,-2,-1,2,3,-1,-1,-3
15:41:23.720546,0,-3,0,9,-1,0,-1,-2
15:41:23.721545,2,0,-1,5,9,-1,0,0
15:41:23.735535,-4,-1,0,-2,4,-1,-2,-4
15:41:23.743531,-3,-4,-1,-6,-5,0,-2,-3
15:41:23.758522,0,-2,-2,17,6,0,0,-2
15:41:23.765514,-1,-4,-4,0,-15,-3,-4,-2
15:41:23.780508,-2,-3,0,3,5,2,-3,-1
15:41:23.781508,1,-1,0,0,-2,-3,0,-4
15:41:23.796499,2,0,0,-2,-3,-2,-1,1
15:41:23.811489,1,0,-1,3,-1,-1,-3,-3
15:41:23.818485,0,1,1,-2,-4,0,-2,2
15:41:23.825479,-3,0,0,9,6,-2,-2,-2
15:41:23.840469,4,2,5,9,8,3,1,1
15:41:23.841468,0,-4,-1,-3,-4,-3,1,0
15:41:23.855461,0,0,-1,-2,4,-5,0,2
15:41:23.863457,1,-1,-3,-5,-3,0,-4,-3
15:41:23.878445,1,2,-1,-2,-2,1,1,0
15:41:23.885443,0,1,0,7,1,-2,2,2
15:41:23.900434,0,-3,-2,-11,-12,-2,-4,-1
15:41:23.901433,-2,1,0,3,7,-3,-1,-4
15:41:23.915424,-2,-3,-1,1,-7,1,-1,-1
15:41:23.923419,2,1,-1,4,9,2,3,3
15:41:23.938410,-1,1,0,-4,-1,0,-4,-1
15:41:23.946404,-3,-4,-6,2,-2,-1,-2,1
15:41:23.960396,3,2,2,3,5,-4,-1,3
15:41:23.961396,0,0,1,-3,1,1,2,2
15:41:23.983383,0,-1,-1,0,-5,-2,4,-3
15:41:23.984380,0,-1,0,12,4,2,-3,0
15:41:23.998373,0,1,2,10,-5,-3,1,0
15:41:24.005368,0,-3,1,4,5,-2,-3,-3
15:41:24.021359,0,-1,-3,-5,3,5,-5,-1
15:41:24.028355,-2,0,0,4,0,0,1,-2
15:41:24.050342,-4,-5,-1,-2,3,-3,-5,-1
15:41:24.051337,-1,-1,-3,-3,0,-1,-1,-1
15:41:24.058336,3,-1,-2,5,3,0,-4,4
15:41:24.065332,-1,-1,-2,-6,-10,0,1,1
15:41:24.088318,0,1,2,13,13,1,-1,2
15:41:24.088318,0,-2,-1,-1,-12,-3,1,2
15:41:24.103308,-5,-1,-2,1,0,-3,-2,0
15:41:24.104308,0,1,2,3,-2,3,2,-1
