timestamp,emg1,emg2,emg3,emg4,emg5,emg6,emg7,emg8
16:31:46.663811,2,0,-1,2,2,1,10,7
16:31:46.670808,0,1,0,-1,0,-5,-5,-3
16:31:46.678804,1,-3,-1,-4,-4,-6,1,4
16:31:46.693791,1,-1,-2,1,-1,-2,-7,1
16:31:46.700787,-2,-1,1,-1,-2,-3,-2,-5
16:31:46.715776,2,2,3,2,1,-5,-1,5
16:31:46.722792,-1,0,-1,-5,-3,-1,-1,-1
16:31:46.730768,-2,0,-2,-3,-4,-2,0,-3
16:31:46.737834,-3,-3,-1,0,0,-11,-11,-5
16:31:46.752841,-4,2,0,-1,1,-3,-1,-4
16:31:46.760750,-2,-1,2,2,-1,1,3,1
16:31:46.775743,0,1,-2,2,-4,-4,-3,-7
16:31:46.783739,-1,-1,-1,-1,0,-3,-2,3
16:31:46.798728,-1,-1,-1,0,-1,0,-4,-3
16:31:46.798728,-3,-1,0,0,2,2,-1,1
16:31:46.813718,-7,-5,-3,-2,-2,-1,-5,-1
16:31:46.820716,1,-2,0,1,1,-4,-7,-1
16:31:46.835706,-2,-4,-1,0,-3,1,-1,-2
16:31:46.842701,-1,-2,-2,0,0,2,1,-2
16:31:46.858689,0,-2,-1,1,2,0,5,5
16:31:46.858689,1,-5,-5,0,-1,-5,-21,2
16:31:46.873683,-3,-4,0,0,-2,-5,-12,-7
16:31:46.880679,0,1,2,0,1,7,7,5
16:31:46.895667,-4,-1,-4,-3,-4,-5,-4,-12
16:31:46.903665,0,0,0,0,4,2,-2,-1
16:31:46.917654,0,1,-3,-1,-2,0,2,6
16:31:46.918655,-8,1,0,-2,0,-4,-5,-7
16:31:46.933643,-2,-3,-2,1,-3,-4,-4,-2
16:31:46.948634,-1,0,-1,4,6,1,3,6
16:31:46.970624,-1,0,0,1,-2,-6,8,-1
16:31:46.971622,4,3,2,1,-1,11,12,8
16:31:46.977615,2,0,2,2,2,5,2,2
16:31:46.978616,-3,0,-2,-1,-2,-5,-4,-4
16:31:47.000602,0,-3,-4,0,-5,-1,4,3
16:31:47.001607,-1,2,-1,-1,-2,1,9,3
16:31:47.015597,-3,-1,-2,0,0,0,-2,-4
16:31:47.023591,14,0,1,0,1,-5,-7,2
16:31:47.038578,-1,-1,0,0,-3,-8,6,3
16:31:47.038578,-1,0,0,-1,1,3,4,4
16:31:47.053570,0,-1,-2,-2,-1,-5,-19,-3
16:31:47.060568,-8,-6,-1,-1,-1,0,9,1
16:31:47.075557,-1,0,-3,0,-3,-1,-3,-3
16:31:47.083554,1,0,1,-1,-1,-6,1,3
16:31:47.098545,1,-2,1,-1,3,3,7,2
16:31:47.098545,-2,1,1,1,-1,1,2,0
16:31:47.113535,-1,0,2,-1,-2,1,1,2
16:31:47.120530,-4,1,0,-1,-2,0,-9,-7
16:31:47.143514,-3,-3,-2,-1,2,1,4,8
16:31:47.143514,3,-2,-5,-1,1,1,19,-5
16:31:47.158506,6,0,-1,1,1,1,-7,-2
16:31:47.158506,-2,0,0,-2,-4,-5,3,-10
16:31:47.173498,-3,0,-4,0,1,-4,-1,-2
16:31:47.180491,-3,-2,1,1,-1,-3,-1,-1
16:31:47.195482,2,-2,0,-2,-2,-2,2,4
16:31:47.203478,-3,-3,-2,-2,2,3,1,-3
16:31:47.218468,-7,-3,0,-1,4,5,-9,-13
16:31:47.219471,-2,-3,-3,-2,-1,-11,-14,1
16:31:47.233462,-2,-3,-1,-2,-2,2,-3,-5
16:31:47.240459,-1,-2,-4,0,-1,-4,-14,-4
16:31:47.255446,-1,1,4,1,0,0,4,9
16:31:47.263440,-8,-3,-4,0,2,2,1,1
16:31:47.278431,-3,0,1,2,-4,-4,-1,-1
16:31:47.279431,-3,0,-2,-1,-2,0,8,2
16:31:47.293425,0,-1,0,0,0,-5,21,4
16:31:47.300418,-2,-4,-2,-4,0,-2,-2,-6
16:31:47.316407,1,0,-1,-2,-3,-5,-4,-1
16:31:47.323403,0,0,0,0,-2,-5,-11,-4
16:31:47.338394,-2,0,-1,-3,-3,-5,10,5
16:31:47.338394,0,0,1,5,4,3,4,3
16:31:47.353388,0,-1,-3,-1,2,-6,-19,-2
16:31:47.360381,-2,-2,-1,-1,-3,-3,-4,-2
16:31:47.376373,0,-2,-1,-5,-2,1,-1,1
16:31:47.383370,2,0,-4,0,-1,0,-4,-1
16:31:47.405356,-3,0,-3,0,1,-1,4,0
16:31:47.406353,-1,1,-1,1,1,-4,-3,-4
16:31:47.413348,-1,-2,0,1,-5,1,-13,-7
16:31:47.421345,-3,-3,1,-2,0,-4,-1,-2
16:31:47.436337,-2,1,-1,2,3,0,4,-7
16:31:47.443332,-7,-5,-1,-1,-2,-2,-2,-4
16:31:47.458320,4,-1,-1,-4,-1,-6,0,-5
16:31:47.458320,1,2,2,1,4,-2,-10,0
16:31:47.481309,-3,-2,-3,0,-2,-3,0,-3
16:31:47.481309,0,-1,-3,-3,1,-1,-11,-6
16:31:47.497297,-3,-1,-3,-3,-1,-1,1,4
16:31:47.503295,-1,0,-3,-2,-2,-1,-14,-2
16:31:47.518285,-5,-2,-1,3,3,3,11,-8
16:31:47.518285,0,0,-1,-1,-2,4,-1,0
16:31:47.533274,-5,0,0,-1,-4,0,-3,-4
16:31:47.541270,0,-3,-1,0,-1,-1,-11,3
16:31:47.556262,4,-2,3,1,7,8,3,-1
16:31:47.563256,-3,-2,2,0,-4,-4,-2,-5
16:31:47.578247,-3,-1,-2,-2,2,0,-5,-8
16:31:47.586245,3,1,0,-1,1,3,-5,8
16:31:47.593240,0,2,0,1,3,-3,-2,-3
16:31:47.601233,0,-2,0,-3,0,12,28,-1
16:31:47.623219,0,1,3,-4,2,1,0,4
16:31:47.624218,-3,-3,-1,-1,1,1,-12,-11
16:31:47.638212,2,-1,-1,0,3,6,5,3
16:31:47.646206,-1,0,-2,-3,-1,-3,0,-5
16:31:47.653203,6,0,1,2,1,3,-4,4
16:31:47.661197,-2,-1,4,0,2,3,4,3
16:31:47.676189,2,1,-2,-5,0,0,17,0
16:31:47.683184,-6,-3,-4,-1,1,1,-7,-5
16:31:47.698177,1,-2,-5,-4,-1,-2,-3,-2
16:31:47.713166,-2,3,0,-1,4,3,1,0
16:31:47.714164,-1,-1,0,0,-1,2,4,-4
16:31:47.721162,3,-1,-1,0,-5,-1,6,2
16:31:47.743148,-2,-2,0,-3,-2,-1,4,-5
16:31:47.744147,1,-2,-1,-1,-2,3,18,1
16:31:47.766131,-4,0,2,-1,-2,-5,-32,-15
16:31:47.766131,4,0,-4,-2,-1,5,4,-1
16:31:47.781124,-4,1,0,0,-4,-6,-1,-9
16:31:47.781124,-3,-1,-1,-1,-1,4,0,-1
16:31:47.796114,-3,-4,1,0,-2,-3,-1,-1
16:31:47.803111,3,-1,-1,-1,-2,-10,-10,4
16:31:47.818101,-3,0,-1,0,-2,-5,-14,-9
16:31:47.826094,-1,-1,-4,-3,-2,-6,-5,4
16:31:47.841086,-3,-1,-1,-1,2,-1,-5,-6
16:31:47.841086,-1,0,-1,-3,-1,-1,5,2
16:31:47.856079,1,3,3,1,2,-1,-14,0
16:31:47.864071,-1,0,-3,0,-3,-7,-7,0
16:31:47.886059,-3,-2,-1,-4,0,-5,-22,-2
16:31:47.886059,0,2,0,1,1,1,6,-3
16:31:47.901048,2,-2,-1,-1,-1,4,9,1
16:31:47.901048,-4,0,1,-1,-2,-6,-3,-2
16:31:47.916041,1,2,2,3,1,3,-3,-2
16:31:47.924037,0,0,1,0,3,1,-1,5
16:31:47.938027,2,0,1,0,2,4,9,7
16:31:47.946021,0,0,-2,0,4,6,25,19
16:31:47.961011,-3,0,0,-1,-2,0,-11,-9
16:31:47.961011,7,2,0,2,-1,-3,-12,9
16:31:47.976005,-3,-2,0,1,-2,-8,-16,-6
16:31:47.982997,0,4,1,-3,0,-2,5,-11
16:31:47.998991,0,0,1,0,-1,-4,-10,-2
16:31:48.005986,1,2,-2,2,5,2,8,4
16:31:48.020974,-2,-1,0,-1,-1,-13,-24,-6
16:31:48.020974,3,0,-1,-1,-3,1,13,6
16:31:48.035968,1,-1,1,-3,-3,2,-10,-3
16:31:48.042960,3,0,0,2,0,0,3,1
16:31:48.057952,-4,-2,-4,-1,-3,-5,-9,-6
16:31:48.065946,0,-1,-1,-4,2,5,3,-4
16:31:48.080940,-1,-2,-1,-3,-1,1,-10,-1
16:31:48.080940,-5,0,0,-1,-3,-3,-10,-7
16:31:48.095930,1,-3,0,1,1,-6,-24,6
16:31:48.110922,-3,-3,-4,-1,-3,-1,5,-1
16:31:48.117915,5,-1,-1,-2,1,4,8,0
16:31:48.125910,-3,-5,-3,-4,1,-3,-2,0
16:31:48.140900,1,1,-1,-1,1,1,14,6
16:31:48.140900,-3,1,-3,-1,-1,0,-8,-2
16:31:48.155891,-6,-3,-2,-1,-2,0,-4,-1
16:31:48.163887,-1,1,1,-1,1,1,-2,-3
16:31:48.177878,-3,3,0,0,0,4,-10,-4
16:31:48.185875,-1,1,-3,-2,1,-5,4,-4
16:31:48.200866,-2,-2,-1,-1,-1,0,-10,-3
16:31:48.200866,-5,-2,1,-1,-1,1,6,-5
16:31:48.215854,0,0,0,-1,-4,-5,-3,-2
16:31:48.223850,-5,-4,-3,-5,-1,8,40,-3
16:31:48.238842,-1,0,0,-1,0,0,-1,-3
16:31:48.245838,2,-1,1,1,-1,0,1,1
16:31:48.267823,-2,0,0,-2,0,2,-4,-6
16:31:48.268821,3,0,0,-2,3,6,7,5
16:31:48.275820,-2,-3,-5,0,-9,-4,7,-3
16:31:48.283812,1,-1,0,1,0,3,6,3
16:31:48.298806,-1,1,-1,0,0,-3,-3,-5
16:31:48.305801,-4,2,0,-1,3,2,-1,-14
16:31:48.320792,4,1,2,1,1,0,-8,22
16:31:48.320792,2,-1,-4,1,-2,-1,3,-5
16:31:48.335783,-1,-2,-2,0,0,1,3,0
16:31:48.342779,-9,-9,-4,0,-2,-2,-4,-1
16:31:48.358766,0,2,1,-1,-1,0,-3,0
16:31:48.365765,-2,-2,-1,-3,-4,-3,-1,0
16:31:48.380755,-5,0,0,0,2,-2,1,-6
16:31:48.381752,3,2,-1,-1,3,12,3,7
16:31:48.395746,-2,-2,2,-2,-1,-4,4,-7
16:31:48.403739,-1,2,2,1,3,6,5,5
16:31:48.418729,0,2,1,0,1,20,42,0
16:31:48.433720,0,-3,0,3,-1,1,-3,0
16:31:48.440718,-4,-3,-3,-4,-1,0,-1,-6
16:31:48.441715,0,-3,0,-1,0,1,4,-4
16:31:48.455709,-4,-1,-4,-2,-1,-3,-3,0
16:31:48.463701,2,-2,-2,2,-1,1,-2,1
16:31:48.485691,-4,-2,-1,-2,1,2,0,3
16:31:48.486687,-5,-5,-5,-9,-5,6,20,-10
16:31:48.507677,-7,2,1,2,-2,-8,-8,-14
16:31:48.515672,-11,-5,-5,-1,-2,-1,-9,-27
16:31:48.516668,3,-3,2,0,-2,-4,2,-12
16:31:48.530663,-4,0,-4,-2,0,-10,-23,-3
16:31:48.545653,-4,1,-1,1,0,-1,-3,-11
16:31:48.546651,-5,-2,1,0,0,-10,-20,3
16:31:48.560645,1,1,-1,-1,6,7,8,0
16:31:48.568639,-1,-4,0,1,-2,1,-3,6
16:31:48.575635,3,2,-2,0,1,0,3,-2
16:31:48.583631,4,-5,-3,-1,2,2,4,2
16:31:48.598621,-1,0,-1,1,0,-3,0,0
16:31:48.605617,-7,0,-3,-2,-4,-7,-6,-9
16:31:48.620608,5,3,2,3,-3,-9,1,12
16:31:48.628600,5,2,-3,1,5,16,13,25
16:31:48.642591,-5,1,-1,-2,-2,-6,-7,-10
16:31:48.643591,4,-1,0,0,0,-1,-13,5
16:31:48.658582,-2,-2,-5,-3,-4,-4,2,-4
16:31:48.665580,-3,-2,-1,2,4,7,5,-3
16:31:48.680570,1,1,4,-2,-4,-2,0,-2
16:31:48.688563,-2,-3,0,2,1,-4,-1,-1
16:31:48.703555,6,3,-1,-1,2,-3,-3,-4
16:31:48.703555,-5,-3,2,-1,0,0,-9,-4
16:31:48.718548,3,-2,-1,1,0,4,21,11
16:31:48.740534,7,3,-2,2,5,16,7,30
16:31:48.741530,-4,-3,0,-3,-4,-3,-7,-15
16:31:48.748527,-5,-2,1,-2,0,0,5,-13
16:31:48.763517,21,10,4,0,8,20,7,62
16:31:48.763517,-6,-3,-4,0,-3,-8,-3,-11
16:31:48.778507,-7,-3,1,1,-3,-6,-4,-10
16:31:48.785505,2,-8,0,-1,0,0,-1,2
16:31:48.800494,-5,-2,-1,-1,0,0,0,1
16:31:48.808489,0,0,-1,6,1,4,-3,-5
16:31:48.823482,6,0,0,-3,1,-4,8,6
16:31:48.823482,-4,-1,-1,0,0,5,1,-7
16:31:48.838474,-4,-3,-3,-5,-6,-2,-3,-1
16:31:48.853464,-6,-4,-1,-1,-2,5,40,-8
16:31:48.860457,11,3,2,2,10,30,44,41
16:31:48.875449,-4,0,-5,-4,-4,1,19,3
16:31:48.883444,-3,-4,-1,0,-1,-4,-12,-11
16:31:48.883444,-1,-2,-5,-6,-3,-1,7,4
16:31:48.898437,2,-1,-2,-2,-1,0,13,11
16:31:48.905430,-4,-3,0,1,1,2,-4,2
16:31:48.920421,-2,-2,1,1,-2,-2,0,-2
16:31:48.928418,0,0,1,-2,-3,-2,0,-1
16:31:48.943409,0,-3,-2,-1,-3,-1,0,3
16:31:48.943409,2,-2,-1,-2,-1,-3,-1,9
16:31:48.958400,0,-2,0,-1,1,2,0,-5
16:31:48.966395,2,-1,1,-1,2,-1,2,5
16:31:48.988378,-5,-2,1,-1,0,2,10,-14
16:31:48.988378,-2,-4,1,1,1,7,3,5
16:31:49.003372,0,-2,-4,-2,-2,-1,-5,0
16:31:49.004371,-3,-2,-3,-4,-4,-1,-2,-4
16:31:49.018363,7,3,-1,0,0,-2,-3,2
16:31:49.025356,-3,0,-2,2,-1,1,-2,-1
16:31:49.040346,0,-4,-5,0,-2,-1,0,-3
16:31:49.048344,-3,0,-3,-3,-7,-4,0,1
16:31:49.063335,-13,0,0,3,2,5,-1,-6
16:31:49.063335,7,0,-2,-2,-6,-8,-8,1
16:31:49.078326,-1,0,1,1,2,1,0,-2
16:31:49.085319,-1,-3,0,0,-1,0,-1,1
16:31:49.101308,-1,0,0,0,-1,-2,-4,-4
16:31:49.108308,-1,-4,-1,0,0,3,3,1
16:31:49.123298,-3,-2,-1,0,-1,1,0,-3
16:31:49.124296,1,-1,-13,-19,-2,-3,0,-3
16:31:49.138289,-3,-4,-26,-14,0,2,-1,1
16:31:49.153280,-7,-6,5,-2,-11,-2,-3,-3
16:31:49.160276,-1,-1,-5,-10,0,-7,-3,0
16:31:49.168270,-16,-22,-19,-21,45,3,-6,-9
16:31:49.183262,12,26,-2,-36,-10,-2,4,6
16:31:49.184257,-26,-44,-36,-78,-115,-31,-17,-20
16:31:49.198252,-19,-11,-3,61,100,-5,-14,-20
16:31:49.205248,11,0,-14,34,127,53,14,8
16:31:49.221235,-7,-6,-33,-55,-128,-116,-12,-9
16:31:49.236226,2,5,25,127,127,101,6,2
16:31:49.243222,17,11,23,-128,-128,-25,11,17
16:31:49.251227,-1,17,76,127,127,54,2,0
16:31:49.266209,-1,-34,-25,5,127,11,-1,2
16:31:49.266209,2,15,3,-118,-98,-23,0,-2
16:31:49.288197,19,38,-8,8,-83,33,13,7
16:31:49.296189,-36,-51,24,127,127,43,-16,-22
16:31:49.303188,20,14,-32,13,127,91,16,12
16:31:49.304184,20,34,111,-24,-128,-69,10,22
16:31:49.318178,3,14,-83,52,127,52,-10,-6
16:31:49.325173,0,26,99,-128,-128,11,4,-8
16:31:49.348159,-90,-128,-128,127,127,-71,-54,-59
16:31:49.349157,28,70,119,-96,-88,-15,15,17
16:31:49.371143,-1,-29,-17,-100,-25,15,1,-4
16:31:49.371143,22,9,63,-128,-128,28,11,11
16:31:49.378138,-46,-58,-51,-60,127,9,-12,-23
16:31:49.386134,56,111,18,127,127,11,20,28
16:31:49.401127,-57,-128,-128,-128,-114,-35,-27,-23
16:31:49.408123,27,65,61,-47,-128,-18,17,15
16:31:49.423114,-10,-88,15,127,127,29,7,13
16:31:49.424113,11,40,5,-98,59,4,2,4
16:31:49.438104,60,121,67,33,127,-19,11,19
16:31:49.446096,-21,-74,-25,112,127,25,-5,-6
16:31:49.461090,30,40,13,-40,-17,13,9,10
16:31:49.476081,-19,-87,5,127,-40,19,4,5
16:31:49.491071,17,72,54,-66,-88,-17,1,7
16:31:49.492071,-13,-67,-25,127,-128,-51,-10,-5
16:31:49.498068,42,24,16,-71,-36,-5,23,16
16:31:49.513057,-25,-28,15,91,52,-15,10,-13
16:31:49.521054,-18,-14,12,-128,6,-12,-23,-1
16:31:49.528049,2,14,-11,125,127,5,-29,7
16:31:49.543037,-3,-1,-36,-128,127,30,-10,4
16:31:49.551035,-32,-88,-88,-61,127,-10,-7,-9
16:31:49.566024,-23,-81,-54,-54,-51,-15,0,-4
16:31:49.574020,15,19,-52,-128,-77,-14,2,-2
16:31:49.581017,6,15,3,-44,-128,-57,-5,1
16:31:49.588011,31,86,72,62,31,15,3,11
16:31:49.603002,2,-1,-31,-128,-33,-42,1,-1
16:31:49.610995,9,22,28,115,-48,6,6,3
16:31:49.617992,5,9,3,-65,-39,-18,-4,5
16:31:49.625986,-10,-12,44,127,127,43,-2,-7
16:31:49.655968,-1,-4,-41,-128,60,9,-5,0
16:31:49.656967,8,47,47,35,127,0,-5,-3
16:31:49.662963,-3,16,11,-30,-50,-8,-5,-3
16:31:49.670961,8,36,29,22,-11,10,-5,-6
16:31:49.685949,7,12,32,8,-75,11,6,4
16:31:49.685949,14,32,7,-39,-89,-30,-1,2
16:31:49.700940,-68,-128,-99,-63,-128,-13,-20,-28
16:31:49.707936,-9,-31,-22,88,115,72,14,5
16:31:49.722927,8,18,-11,-58,21,-9,0,2
16:31:49.730924,-12,-9,7,19,-34,6,1,-3
16:31:49.745913,-43,-95,-57,3,8,0,-10,-18
16:31:49.746912,-7,-5,-17,-12,7,13,-3,-4
16:31:49.760906,28,49,43,33,89,20,11,13
16:31:49.775897,5,13,-10,-9,127,16,5,4
16:31:49.790887,-10,-23,-27,-128,-128,-20,-1,-7
16:31:49.790887,9,35,26,-37,-128,-23,0,4
16:31:49.805878,-5,-9,18,99,-51,18,2,1
16:31:49.806876,31,77,55,-14,-19,-27,-3,6
16:31:49.820869,4,10,22,127,-21,18,5,1
16:31:49.827862,12,7,28,127,127,9,10,11
16:31:49.843854,23,42,-12,-87,-128,-17,5,10
16:31:49.850850,-1,4,8,-128,55,1,2,-1
16:31:49.873839,-13,-39,-29,-75,-2,-2,3,-1
16:31:49.873839,27,79,28,-128,127,21,3,4
16:31:49.880832,41,73,50,21,-128,-56,1,17
16:31:49.887825,-14,-23,18,108,-97,-14,-2,-8
16:31:49.902816,-60,-90,-35,126,10,67,-14,-29
16:31:49.910814,-17,-33,-21,-53,-120,-32,-7,-6
16:31:49.925805,4,7,-9,-84,57,-7,0,0
16:31:49.926802,3,5,-40,-128,-128,-8,3,3
16:31:49.940796,-36,-70,-57,-62,-127,-28,-8,-10
16:31:49.948790,-3,-15,-29,46,-34,-19,-5,-4
16:31:49.963778,-2,3,40,16,-128,-42,-1,3
16:31:49.970777,3,3,3,-57,79,11,1,0
16:31:49.985768,11,12,-2,-35,-128,32,6,6
16:31:49.985768,18,64,98,-128,-71,24,-2,2
16:31:50.000758,-10,-12,-19,-51,127,12,-8,-12
16:31:50.007754,14,27,-12,-128,-14,10,0,3
16:31:50.023744,12,23,20,-81,-128,-18,4,6
16:31:50.030740,-12,7,15,108,-34,16,-5,-14
16:31:50.045730,-1,-8,-3,-81,118,-26,-9,-4
16:31:50.046731,4,-11,-21,127,127,20,4,2
16:31:50.060721,7,17,-9,52,23,19,0,-2
16:31:50.068713,12,10,-65,-128,-128,-17,5,12
16:31:50.090703,15,19,1,-93,56,-11,3,5
16:31:50.091701,-28,-58,-39,6,127,30,-5,-10
16:31:50.105693,10,10,-42,-128,-128,-51,-3,3
16:31:50.106690,-19,-32,-19,-61,-110,-42,-9,-7
16:31:50.128676,11,24,8,-111,-71,-38,1,2
16:31:50.128676,-40,-61,-40,47,41,25,-8,-21
16:31:50.143667,10,15,-9,-128,-78,-11,3,5
16:31:50.158661,13,14,7,97,-5,-17,-1,4
16:31:50.165657,-7,-7,9,63,115,35,-6,-7
16:31:50.166656,7,13,16,-70,-114,-22,-3,2
16:31:50.180647,-10,-11,-9,3,5,-10,-6,-5
16:31:50.188641,-33,-62,-55,-11,51,3,-11,-15
16:31:50.210629,1,-4,1,40,-38,-24,-1,4
16:31:50.211626,2,2,-14,-34,-21,-7,2,4
16:31:50.225619,7,-4,-10,65,-53,-5,3,5
16:31:50.226617,5,7,2,-26,-27,-11,-4,0
16:31:50.240611,4,10,15,71,127,18,3,-2
16:31:50.248603,-2,-3,-8,-17,-34,-19,-3,-3
16:31:50.263594,-11,-2,9,-6,82,-18,-7,-8
16:31:50.270592,-16,-19,-3,94,127,40,2,-8
16:31:50.285583,9,8,-5,-73,-107,-6,4,4
16:31:50.286582,11,12,8,-16,-64,13,6,8
16:31:50.300570,-28,-45,-19,56,58,3,-10,-15
16:31:50.315562,3,8,4,-19,36,6,1,4
16:31:50.323557,-12,-23,-7,127,36,-20,-9,-6
16:31:50.330555,6,9,10,56,86,44,8,8
16:31:50.345543,0,5,2,-14,-18,2,3,-2
16:31:50.346543,1,-6,-5,25,127,43,1,2
16:31:50.360536,5,2,20,13,-30,-1,2,3
16:31:50.375526,2,-3,-28,-33,-108,-37,0,4
16:31:50.383520,-42,-72,-61,-5,-49,13,-11,-19
16:31:50.413504,-10,-9,1,112,36,-32,-6,-10
16:31:50.413504,-7,-24,-25,-42,127,4,-1,3
16:31:50.414503,11,23,17,-41,-35,-17,5,8
16:31:50.420499,-15,-22,-19,89,24,-21,-5,-7
16:31:50.428495,-28,-46,-31,31,8,8,-14,-12
16:31:50.443486,20,35,23,46,127,-24,4,4
16:31:50.450484,-26,-51,-21,112,1,47,1,-7
16:31:50.465469,11,4,-22,-62,-128,-85,4,11
16:31:50.473465,-8,-4,7,79,96,42,-11,-7
16:31:50.488455,10,13,-20,-128,83,-29,5,8
16:31:50.488455,4,3,-1,-36,-76,-17,1,4
16:31:50.503449,-1,1,-5,-21,-30,-7,3,-1
16:31:50.510441,-3,-1,-2,-1,3,2,1,-1
16:31:50.525433,-2,-5,0,7,9,3,-19,-5
16:31:50.533430,-12,-6,-2,1,11,7,-15,14
16:31:50.540424,31,9,4,9,11,4,2,1
16:31:50.548421,-13,-15,4,7,22,36,51,90
16:31:50.563412,-19,-5,-1,1,4,5,97,51
16:31:50.570405,73,23,5,-5,-11,-32,-83,-72
16:31:50.585396,-12,-9,-6,3,13,23,-51,17
16:31:50.593393,-128,-35,-14,-21,-22,-61,-77,24
16:31:50.608381,-16,38,4,3,-43,-30,127,-128
16:31:50.608381,127,24,-18,-19,-1,56,127,127
16:31:50.623375,-128,14,-5,-7,-37,-100,119,-128
16:31:50.630368,-20,3,-12,-22,-18,51,-128,67
16:31:50.646357,127,43,11,10,-3,-31,127,-30
16:31:50.653356,-48,11,-11,-17,-43,-29,-41,-100
16:31:50.675339,-74,-32,-6,38,127,-60,-19,15
16:31:50.676339,12,27,49,121,112,91,-3,-3
16:31:50.683338,33,18,54,-32,-87,20,10,46
16:31:50.690330,-20,-26,-9,51,-47,7,-27,-14
16:31:50.706324,27,-77,-11,-128,-71,13,18,49
16:31:50.713319,-17,34,42,127,127,11,12,-4
16:31:50.728310,-87,-62,-33,-128,127,-120,-43,-43
16:31:50.736305,-18,-8,-46,-40,77,-52,-40,-55
16:31:50.750294,2,29,18,80,60,16,10,2
16:31:50.751293,-69,-32,-10,-86,127,60,29,-22
16:31:50.766284,-23,9,-36,-128,-128,-89,-11,-62
16:31:50.773283,-3,51,61,127,127,64,20,-47
16:31:50.788273,27,28,0,8,64,-100,-21,69
16:31:50.796267,-55,4,-23,-23,-128,1,42,-38
16:31:50.803264,-28,-6,2,121,127,-25,-35,-29
16:31:50.810257,-4,1,-10,3,-128,12,-13,-17
16:31:50.826250,-32,-26,-15,36,121,9,-62,-44
16:31:50.833246,-76,19,17,28,84,56,65,-52
16:31:50.848237,-7,6,-31,51,-128,-81,10,3
16:31:50.856228,-18,-13,-25,-70,-12,-47,-80,-13
16:31:50.863227,-14,4,16,-46,71,-30,-10,-28
16:31:50.871226,7,12,0,-128,-128,36,-17,10
16:31:50.886212,32,-19,-8,37,88,-19,-84,26
16:31:50.893209,7,-2,-11,-11,-59,-34,17,-26
16:31:50.908199,29,0,17,18,-7,17,29,23
16:31:50.916195,-56,1,-5,122,127,6,10,-16
16:31:50.923190,-11,-5,-10,-128,-128,-71,-20,-9
16:31:50.931183,-13,-9,-34,-21,127,18,-7,-4
16:31:50.946174,5,3,-39,-33,127,25,-3,13
16:31:50.953172,-26,-5,13,36,-40,-20,-7,-22
16:31:50.968163,10,3,-4,-18,-47,18,-33,45
16:31:50.983153,71,4,22,-128,-44,39,70,104
16:31:50.984150,56,5,9,103,93,39,45,12
16:31:50.991147,-11,1,9,13,127,-19,0,-18
16:31:51.013135,-2,3,-13,-107,24,-16,13,-17
16:31:51.014133,-7,-6,6,49,30,11,5,-5
16:31:51.028125,1,2,-11,-93,-128,-25,-2,0
16:31:51.029122,12,4,9,29,67,8,8,24
16:31:51.043114,6,0,-8,-6,-16,-9,5,-3
16:31:51.051109,-14,0,-1,25,127,12,-6,2
16:31:51.066103,-8,6,2,-8,66,11,-30,6
16:31:51.073098,9,10,9,15,7,0,13,45
16:31:51.088089,0,0,-2,0,-7,5,-15,3
16:31:51.089088,-1,3,6,127,127,21,6,-3
16:31:51.103079,-3,-1,-4,100,-9,-29,-3,-6
16:31:51.111074,-13,-10,-2,17,83,-3,-7,-8
16:31:51.126065,2,6,1,-14,-5,-2,2,0
16:31:51.141057,-3,0,-2,-19,12,12,15,18
16:31:51.148051,-10,-9,-5,-5,-28,-8,0,-19
16:31:51.149049,12,1,3,1,6,0,1,1
16:31:51.163040,3,0,4,53,-47,10,25,22
16:31:51.171035,-12,-8,-5,-47,-128,-26,-12,-17
16:31:51.193024,-6,-6,1,27,83,6,-6,-5
16:31:51.194023,-1,3,0,-6,5,5,-19,4
16:31:51.208015,-12,4,1,0,-16,11,48,-12
16:31:51.209014,-3,2,4,2,-9,-1,10,7
16:31:51.223004,-15,-4,-6,-3,-5,-8,1,-15
16:31:51.231001,29,3,2,-128,-101,-17,-4,10
16:31:51.245991,-7,-3,-5,25,-24,-12,-5,1
16:31:51.252984,-2,-1,0,37,65,8,-1,17
16:31:51.267978,-13,-7,-5,25,44,-22,-32,-19
16:31:51.268977,-1,-2,-2,-15,-78,-5,15,8
16:31:51.290961,-3,-2,-2,8,16,8,7,0
16:31:51.290961,3,-2,-3,-3,-3,-7,0,-4
16:31:51.305955,21,1,0,0,-3,-8,-20,22
16:31:51.312947,0,4,-3,-4,-7,7,-24,0
16:31:51.327941,-1,-3,1,5,-6,2,2,2
16:31:51.328938,-9,-8,-9,7,5,-26,-25,1
16:31:51.342929,4,1,-1,3,20,5,21,17
16:31:51.350927,-6,-3,-2,-1,12,-4,-10,-7
16:31:51.365918,-1,-3,-3,23,-1,0,-13,-1
16:31:51.372911,4,0,1,23,-35,12,59,12
16:31:51.387902,-4,-3,0,5,17,-1,-21,-11
16:31:51.388903,5,-3,-1,-2,1,2,5,5
16:31:51.402893,0,-1,-1,-1,7,21,37,-3
16:31:51.410890,-1,0,-1,-2,-3,-8,-12,3
16:31:51.425881,-3,-2,-4,21,-5,-11,-3,-9
16:31:51.433876,1,3,1,5,5,-5,-21,1
16:31:51.447865,5,2,2,12,3,3,5,2
16:31:51.455862,-4,-1,-2,-9,15,-6,-15,-5
16:31:51.462855,2,3,1,-25,-96,-12,-37,3
16:31:51.470853,-10,0,3,1,-32,13,10,-18
16:31:51.485844,6,-2,0,1,3,6,30,28
16:31:51.492836,-14,-7,-1,0,2,2,-7,-26
16:31:51.508828,-2,-4,-4,-8,-7,-3,-1,-10
16:31:51.515826,6,2,2,-13,7,0,3,2
16:31:51.522818,2,-1,2,3,4,14,13,5
16:31:51.530816,1,2,0,1,6,26,35,-2
16:31:51.545807,-9,-4,-6,-19,-8,-15,-26,-13
16:31:51.560798,-2,-2,-2,11,3,11,-3,-2
16:31:51.568792,1,-1,0,3,1,1,2,-14
16:31:51.575785,1,-2,-2,-4,-4,-3,-1,2
16:31:51.598774,6,3,2,-1,-3,4,37,42
16:31:51.598774,-5,-4,-2,-2,0,-5,-7,-11
16:31:51.605770,1,3,1,2,10,14,10,-5
16:31:51.613763,1,0,0,32,-7,-10,-7,11
16:31:51.628753,-5,-3,-4,-13,-26,-9,-17,-9
16:31:51.635752,-7,-5,-2,-6,-35,-3,8,-15
16:31:51.650739,-1,0,-2,-5,-4,1,10,5
16:31:51.651741,-1,-3,0,-2,0,1,4,4
16:31:51.665733,2,4,0,0,-1,15,21,25
16:31:51.673728,-1,-1,0,-1,-2,-10,-6,-1
16:31:51.688716,-3,1,2,-2,-4,-7,-6,-8
16:31:51.695712,15,-1,1,-1,-3,-4,3,28
16:31:51.718701,-3,3,2,6,4,10,26,3
16:31:51.718701,-1,-1,-3,10,4,-3,24,-4
16:31:51.725696,13,3,2,8,8,-3,7,17
16:31:51.733690,-7,-1,0,-1,0,2,-5,-15
16:31:51.748679,-3,-1,3,4,-4,-7,1,-1
16:31:51.763672,-7,-3,1,-3,1,-20,-25,-6
16:31:51.770669,-1,-3,0,1,-1,-2,1,4
16:31:51.771665,-8,-2,-1,-2,-3,-29,-104,13
16:31:51.785659,-5,2,-3,-2,-8,-9,-1,-3
16:31:51.792655,-16,-7,-2,-2,-3,-4,4,-9
16:31:51.823634,-5,2,4,5,6,4,1,-9
16:31:51.823634,-1,-3,1,2,5,-4,6,16
16:31:51.830632,-1,0,0,0,0,1,-4,-6
16:31:51.831630,-1,-1,-3,0,-1,0,-2,-3
16:31:51.845621,-4,-1,-2,-1,-1,-3,-7,-2
16:31:51.853614,-3,-4,-4,-4,0,6,25,-3
16:31:51.868608,4,3,0,1,5,8,1,21
16:31:51.875604,-3,-6,-3,-3,0,5,2,-6
16:31:51.898588,-2,2,4,1,-4,-11,-16,-6
16:31:51.898588,20,4,0,2,0,-23,-7,19
16:31:51.905585,-11,-4,-4,-2,1,3,-1,-14
16:31:51.913581,-7,-4,-2,-1,-1,-9,-3,-7
16:31:51.928568,-5,-1,-3,-2,-5,-4,-15,-13
16:31:51.935567,-4,-4,-3,-4,-9,-8,-5,-1
16:31:51.950558,-1,-1,-2,0,-4,6,-14,-7
16:31:51.951554,6,4,5,4,8,-7,-28,8
16:31:51.965548,-6,-1,-1,0,1,-5,4,-7
16:31:51.973541,-7,-3,-2,-2,10,2,5,1
16:31:51.988532,0,-1,1,1,0,0,-6,-7
16:31:52.003525,-1,-3,-2,-2,0,-12,-9,15
16:31:52.010521,2,1,1,3,0,-17,-48,-1
16:31:52.011520,1,-1,1,0,-2,-2,6,-3
16:31:52.025512,-8,-4,-6,-4,-3,-7,-11,-15
16:31:52.033507,-1,2,-1,0,-2,7,7,2
16:31:52.048498,-1,1,-1,-2,-6,-7,0,-3
16:31:52.055493,-6,0,2,4,1,3,12,-5
16:31:52.070484,-6,-9,-10,-7,-4,-3,-5,-9
16:31:52.071482,2,2,-1,2,-2,-8,-8,-7
16:31:52.085471,1,3,2,0,2,3,1,4
16:31:52.093470,-5,-1,-2,0,-1,-1,-2,-9
16:31:52.108461,-4,-1,-2,1,-2,-1,-9,-8
16:31:52.123452,5,-2,-1,-3,3,-14,-8,16
16:31:52.130447,-15,-4,1,1,-9,-9,-28,-40
16:31:52.131443,3,0,-3,0,-2,-10,-23,17
16:31:52.145435,-6,-1,1,2,2,6,-6,-12
16:31:52.153433,5,0,-3,-3,5,-2,3,22
16:31:52.168424,-3,-1,-1,-4,-3,0,21,12
16:31:52.175418,-3,-1,-2,-2,-3,-7,1,0
16:31:52.190410,-7,-3,-2,-3,1,-1,-6,-18
16:31:52.191407,7,2,-1,-2,-5,-6,-2,13
16:31:52.205401,6,-4,-3,-2,-3,-7,10,16
16:31:52.213393,1,-1,-3,-4,-3,-14,-20,-1
16:31:52.228387,-8,-6,-6,-3,-7,-25,3,-3
16:31:52.235380,3,2,2,1,8,2,-1,3
16:31:52.250372,2,1,-1,-2,-5,-9,9,9
16:31:52.251372,-8,-5,-3,-3,1,-6,-16,-20
16:31:52.266363,22,6,6,3,8,18,8,41
16:31:52.273359,-2,-5,-4,0,2,9,8,5
16:31:52.295345,9,5,4,1,4,-20,-31,34
16:31:52.296342,3,-6,-1,-3,1,3,-8,-12
16:31:52.318331,1,0,4,0,-1,3,-3,8
16:31:52.318331,-6,-5,-2,-3,-4,-2,-3,-8
16:31:52.325324,-4,1,2,0,-3,-1,-5,-4
16:31:52.333322,-5,0,0,0,0,13,65,-14
16:31:52.348313,5,-1,-3,-2,-2,-8,-6,-2
16:31:52.355309,-11,-5,-2,-1,-1,8,39,-11
16:31:52.371299,-4,-3,-6,-3,-2,8,0,-6
16:31:52.378294,2,-2,0,0,0,0,9,0
16:31:52.386288,-6,-1,0,0,-1,-4,7,-2
16:31:52.393285,-10,-5,0,0,-2,-7,-17,-9
16:31:52.408276,-5,-3,1,1,3,-2,-4,-7
16:31:52.416269,5,3,5,4,8,11,-1,8
16:31:52.431262,5,0,-4,-5,-4,-11,17,22
16:31:52.438258,-3,0,-2,-1,-1,10,-8,-1
16:31:52.446252,-3,-3,-3,-2,-4,-6,-3,2
16:31:52.453248,-2,0,1,-2,1,22,36,-9
16:31:52.468239,-9,-4,-3,-4,-3,6,0,-4
16:31:52.475237,-3,5,1,2,7,3,-2,-7
16:31:52.491222,-1,0,0,-1,-2,-8,-2,-5
16:31:52.498221,-2,-1,-1,-3,-5,-13,-28,-12
16:31:52.513211,7,1,4,1,6,10,30,17
16:31:52.514209,-4,3,1,0,1,1,10,-14
16:31:52.528202,-3,-5,-2,-4,-2,9,3,-15
16:31:52.536197,-1,0,5,1,5,8,18,2
16:31:52.551185,2,0,0,0,-4,-2,-3,-7
16:31:52.558182,-1,1,0,-1,-1,-10,-23,-6
16:31:52.573173,-5,-2,-3,-3,-1,6,19,-5
16:31:52.574170,1,-2,-4,0,-5,-6,-3,-1
16:31:52.588162,-8,-1,-3,-3,-5,-15,-30,-4
16:31:52.596158,-5,0,-1,2,1,6,1,-7
16:31:52.611154,8,1,2,-2,-1,3,4,2
16:31:52.626142,2,0,-2,-1,1,3,10,10
16:31:52.633136,-5,-1,3,-1,-1,-4,-4,-13
16:31:52.634134,2,-3,2,-1,-1,1,-10,0
16:31:52.648127,10,6,4,2,5,4,-1,17
16:31:52.656130,-5,-3,-1,0,-1,16,46,-10
16:31:52.679107,8,4,0,1,4,1,-16,5
16:31:52.679107,-5,-2,-1,3,-1,-2,12,-5
16:31:52.693098,-2,-3,0,0,-1,14,12,17
16:31:52.693098,0,-2,0,4,7,15,3,1
16:31:52.708092,-5,0,0,0,2,6,24,-11
16:31:52.716084,0,0,3,0,2,7,-5,-3
16:31:52.738073,-4,-1,1,-3,1,-6,-34,-4
16:31:52.739070,0,-4,1,-3,2,-1,-4,12
16:31:52.753064,-1,-4,-3,-1,-3,-5,-31,-9
16:31:52.754061,-4,-2,0,-2,0,4,11,-4
16:31:52.768054,-1,1,2,0,-1,-6,-4,-2
16:31:52.776046,0,0,-3,0,2,-5,-9,-3
16:31:52.791038,1,-3,-3,1,-2,-1,28,-6
16:31:52.798034,-5,-3,-4,-3,-1,-12,-7,-4
16:31:52.813026,1,1,1,2,-1,-1,1,-1
16:31:52.814026,-1,-1,-1,1,4,4,10,1
16:31:52.828017,3,2,-1,-1,1,-8,-23,13
16:31:52.836013,-1,3,0,2,2,4,-2,2
16:31:52.851003,0,-2,-5,-3,-3,-6,0,16
16:31:52.857999,-11,-1,1,2,1,-4,5,-15
16:31:52.872990,6,-3,1,0,3,3,-25,14
16:31:52.873986,-6,-3,-1,2,-1,4,3,-5
16:31:52.887981,-4,-3,-1,0,-7,-13,20,-5
16:31:52.895976,17,8,4,1,1,2,17,64
16:31:52.910966,-1,-1,-3,-2,-4,-3,-5,-11
16:31:52.917959,-5,-1,-4,-5,-3,-4,-8,-3
16:31:52.932953,1,-1,1,-2,0,3,2,3
16:31:52.933952,-5,1,1,2,1,-1,-30,-11
16:31:52.948943,-2,-2,-3,-3,-5,4,11,4
16:31:52.962932,12,0,3,1,6,11,17,14
16:31:52.970930,8,1,-2,-2,3,9,-9,33
16:31:52.977924,-4,-2,-1,0,-2,-7,-2,-17
16:31:52.992914,-5,-3,-2,-3,0,-3,-3,-9
16:31:52.993915,1,-1,-2,-1,-3,-7,3,-4
16:31:53.007904,9,1,0,1,1,-9,-41,8
16:31:53.015902,-7,-2,-2,1,2,2,-8,-9
16:31:53.030893,16,0,-3,0,3,5,11,8
16:31:53.037886,-4,0,-2,-1,-2,-1,0,0
16:31:53.053875,8,2,-1,-1,-1,-14,-27,33
16:31:53.053875,-4,0,0,-1,2,0,17,-1
16:31:53.067868,-1,0,3,0,1,4,12,1
16:31:53.075867,-1,-1,-2,-5,-3,-17,-32,-7
16:31:53.090856,-5,3,-1,-3,-2,-6,5,-5
16:31:53.097849,-3,-2,0,-3,0,-3,-35,-8
16:31:53.112841,3,1,-1,-2,-3,-1,6,12
16:31:53.113839,-1,-3,1,-1,-1,4,-2,0
16:31:53.127831,2,1,1,3,3,1,-5,13
16:31:53.135828,-2,-5,0,1,-2,-3,-11,-14
16:31:53.150819,0,-1,-4,-3,2,13,3,7
16:31:53.157812,16,1,0,-2,0,1,-20,10
16:31:53.180801,-4,2,1,2,1,-9,-9,0
16:31:53.181798,-6,-4,0,0,3,2,4,0
16:31:53.188796,-1,-4,4,-1,0,-1,3,-3
16:31:53.195791,-4,-3,-2,0,-6,-38,-41,-13
16:31:53.210782,3,0,-4,0,-3,-8,-6,2
16:31:53.218774,-2,0,-2,0,0,-11,0,-5
16:31:53.233765,7,-1,1,0,1,-12,-46,7
16:31:53.233765,-2,-3,0,1,2,1,5,-3
16:31:53.248756,-3,-3,0,-3,-4,3,1,-1
16:31:53.263748,7,2,1,0,0,-22,-28,28
16:31:53.278737,-3,-2,0,3,-2,-3,-7,-7
16:31:53.278737,-3,-3,0,-2,1,1,8,-4
16:31:53.300727,-4,-5,-2,-5,-4,-9,-15,-15
16:31:53.301725,-2,-3,-2,-4,-3,-16,-37,-11
16:31:53.307722,-2,-1,-4,-2,-2,5,23,3
16:31:53.315718,-4,0,4,0,-3,0,-11,-12
16:31:53.330708,5,1,0,-3,0,4,1,0
16:31:53.338703,-3,-5,-4,-4,-4,5,21,-7
16:31:53.353693,9,1,1,-4,-7,-4,17,35
16:31:53.360690,-1,-1,-1,2,1,-3,-7,-8
16:31:53.375681,-7,-1,-3,-2,1,-11,-30,-13
16:31:53.376677,-5,-1,0,-1,-2,-2,0,-3
16:31:53.390669,0,2,0,-1,-2,1,9,9
16:31:53.398665,-1,-4,0,1,-4,-2,0,-4
16:31:53.413654,-6,-4,-4,-2,1,2,0,8
16:31:53.420653,-4,-1,1,1,-1,5,-12,-7
16:31:53.435644,-4,-2,-2,-3,-5,-16,-14,-13
16:31:53.436643,2,1,3,-3,0,-8,-4,22
16:31:53.450634,-5,-1,-1,-1,0,0,20,-11
16:31:53.457631,1,-2,2,1,0,-6,9,13
16:31:53.480616,2,0,-1,-2,-3,-7,-9,9
16:31:53.481612,-3,-2,-1,-1,-2,3,1,-7
16:31:53.495606,-6,-4,3,-2,-2,-6,1,-12
16:31:53.496604,-6,-5,-3,0,-6,-5,-9,-2
16:31:53.510597,4,-1,0,4,0,1,18,-9
16:31:53.518589,-3,0,-2,0,-3,-9,-21,-16
16:31:53.540579,2,1,-2,-2,0,-1,0,-3
16:31:53.541579,-6,-3,-1,0,-1,-2,-4,-3
16:31:53.555570,-3,-4,2,-2,-1,-1,-2,-4
16:31:53.556570,11,1,-2,-1,-3,-3,-2,12
16:31:53.570560,1,-4,-2,-2,-4,-11,-33,-6
16:31:53.585551,-1,-1,-3,0,-5,6,11,-1
16:31:53.593547,-7,-5,-1,-4,-5,-11,9,-12
16:31:53.600542,-5,2,-2,-2,-2,-7,-7,-6
16:31:53.615533,-1,1,1,2,1,2,-8,1
16:31:53.616532,-1,0,-1,-2,-2,-3,-8,-10
16:31:53.630524,3,3,0,-2,0,5,2,12
16:31:53.638519,4,3,1,1,4,11,2,8
16:31:53.653509,-5,-3,-3,-1,-2,-10,-4,-3
16:31:53.660505,4,4,4,-3,3,3,-12,7
16:31:53.675496,-3,-3,0,-2,-2,-13,-16,-9
16:31:53.676492,4,2,2,2,1,-4,-1,0
16:31:53.690485,-8,3,0,-1,3,2,5,0
16:31:53.705476,3,-1,-3,0,-1,0,17,25
16:31:53.713473,-4,0,-3,1,1,11,12,-16
16:31:53.720467,-5,-2,-3,1,1,-2,-8,-9
16:31:53.735459,-2,2,0,1,0,-6,17,-7
16:31:53.736455,3,6,2,1,-3,0,-10,6
16:31:53.750449,-4,3,0,1,2,-7,-22,-8
16:31:53.765438,10,1,0,-1,-1,5,13,12
16:31:53.773436,-5,-4,-2,-1,-3,-8,-20,-21
16:31:53.780430,0,-2,-1,-1,5,10,7,3
16:31:53.803417,-6,-1,-2,-2,-1,-14,-41,-6
16:31:53.803417,7,-1,1,4,1,7,26,4
16:31:53.810411,-2,2,0,0,0,4,-3,7
16:31:53.818408,-3,1,-2,-2,-3,-5,-5,1
16:31:53.833399,-6,-3,0,-2,-1,-16,-32,-9
16:31:53.848389,-6,-3,0,0,0,1,3,-3
16:31:53.855385,-3,-5,-7,-4,-5,-11,-6,3
16:31:53.856385,-4,-1,-1,-1,1,3,2,1
16:31:53.878371,1,2,1,1,3,9,40,-1
16:31:53.878371,10,5,1,-5,-1,-2,7,14
16:31:53.893362,6,-1,-3,-3,-5,-15,1,2
16:31:53.900356,4,2,3,0,2,-4,14,14
16:31:53.915347,-7,-3,0,-2,1,3,-4,-6
16:31:53.916346,7,4,5,1,7,2,13,28
16:31:53.930337,2,-5,0,-2,2,3,8,4
16:31:53.938334,-1,-3,-1,-1,-2,-6,-24,-3
16:31:53.953325,-1,-1,-2,-2,-3,-8,-17,-4
16:31:53.960318,1,-2,-4,-2,-3,2,5,10
16:31:53.975308,1,-3,-2,0,0,-2,0,-3
16:31:53.976310,0,-3,-5,0,-4,-3,-6,-11
16:31:53.990299,16,3,1,1,4,11,24,27
16:31:53.998297,-3,-1,0,-2,-5,-14,-31,-10
16:31:54.013288,-3,-3,-5,-2,-2,1,-11,-4
16:31:54.021286,-7,-1,0,1,5,7,9,1
16:31:54.035272,2,0,-1,-3,-1,0,2,2
16:31:54.036271,-5,-1,0,0,-3,7,1,5
16:31:54.051264,-5,-1,0,2,2,-5,-11,-14
16:31:54.058260,-4,1,-4,-3,-9,-9,-2,-7
16:31:54.073251,-6,-3,-3,-1,1,0,3,-5
16:31:54.081247,4,2,2,0,0,-3,-11,-5
16:31:54.096234,2,-1,-1,-1,1,-4,-6,6
16:31:54.096234,1,-2,-2,-1,3,8,4,-1
16:31:54.118223,9,2,1,1,9,8,6,28
16:31:54.119220,-2,-3,0,0,-3,1,12,4
16:31:54.133214,-1,-2,0,0,-3,-3,-4,-6
16:31:54.140210,1,3,2,1,2,6,6,2
16:31:54.155199,-1,0,-1,0,-3,0,-9,-5
16:31:54.156197,-5,-3,-1,1,1,-5,-19,0
16:31:54.171188,-3,1,1,-3,-3,-6,-12,-4
16:31:54.178186,-9,0,-5,-2,-2,-8,-7,-7
16:31:54.193177,-1,-1,-1,2,1,-1,-4,0
16:31:54.201172,-4,-1,-1,0,5,14,-2,-1
16:31:54.216160,-2,0,0,0,-5,-6,-4,-3
16:31:54.216160,-3,-4,-1,-3,3,1,-1,-6
16:31:54.231154,-1,-5,-3,-4,0,-1,0,-3
16:31:54.238150,-6,-1,-2,-2,-1,4,-3,0
16:31:54.253140,11,-2,-3,-1,-1,0,-3,11
16:31:54.261132,-1,-1,-3,-1,1,7,17,-1
16:31:54.276127,-2,-2,0,-3,-4,-4,4,-2
16:31:54.283120,-1,0,0,1,-3,-14,-27,4
16:31:54.291117,0,2,1,0,1,-1,7,5
16:31:54.298112,-6,-4,-3,-2,-1,9,-10,-4
16:31:54.313102,-3,0,-2,-3,-4,-2,-4,-10
16:31:54.328093,2,0,0,-1,5,11,32,20
16:31:54.336089,-3,1,0,0,-6,-7,-15,-14
16:31:54.343085,-1,-3,1,1,3,4,16,6
16:31:54.351080,-5,-3,-3,-2,-1,-1,-4,-11
16:31:54.358076,-5,-2,0,-1,3,1,-14,-1
16:31:54.373065,4,2,2,-3,1,0,16,14
16:31:54.381062,-4,-1,0,-1,2,9,4,-3
16:31:54.396050,-3,-4,0,1,-4,-12,-3,-1
16:31:54.403045,-3,0,-1,-3,2,3,-9,-3
16:31:54.418039,-2,1,-1,1,0,-3,8,-3
16:31:54.419035,6,0,-2,-3,2,7,-1,24
16:31:54.433028,-10,-2,-1,-4,-1,-6,-36,-14
16:31:54.441025,-6,-3,-1,-2,-4,-5,3,-4
16:31:54.456013,-4,-2,-2,-1,-1,-3,-1,-7
16:31:54.463009,-1,-2,-3,-3,-2,5,-2,6
16:31:54.477999,-2,-2,-3,-3,-3,-7,0,-5
16:31:54.479000,3,-3,-4,-2,1,3,9,5
16:31:54.500985,2,0,2,2,1,-3,-2,4
16:31:54.507981,-2,0,2,0,2,-4,-17,-12
16:31:54.515979,0,-3,2,-2,2,18,31,4
16:31:54.522974,5,2,3,2,-1,-11,-3,4
16:31:54.537964,-9,-4,-5,-3,4,12,5,-7
16:31:54.538961,7,0,0,1,-2,1,15,15
16:31:54.552953,-4,3,-1,-2,-3,-3,2,-2
16:31:54.560951,-7,-2,-5,-4,-1,-5,1,-1
16:31:54.575942,2,1,2,3,-1,-5,-1,0
16:31:54.583936,-4,-4,-3,-1,0,2,-10,9
16:31:54.597925,6,0,-3,-2,-2,-4,-24,23
16:31:54.598925,-5,-5,-4,-3,-1,1,4,-11
16:31:54.613916,-2,0,1,1,-1,-4,-8,-7
16:31:54.620914,9,-2,-2,-4,-3,-5,-5,4
16:31:54.635905,1,-1,-2,-1,-5,1,-4,2
16:31:54.642897,-4,-1,-1,2,4,6,2,2
16:31:54.657889,-3,-1,-1,-2,1,0,-8,-4
16:31:54.658888,-2,2,1,-1,-5,-4,-9,-6
16:31:54.672880,5,-3,-2,1,0,0,0,6
16:31:54.680877,-4,-2,-1,0,2,3,-15,5
16:31:54.695868,1,3,-2,11,6,1,-3,-5
16:31:54.702863,-5,1,2,2,-8,5,3,-23
16:31:54.717852,-7,0,0,6,0,-2,-2,-5
16:31:54.718854,1,2,2,-1,4,1,-3,0
16:31:54.740840,5,-1,0,-9,-9,-6,0,-3
16:31:54.740840,-5,-3,0,6,4,-3,-5,-10
16:31:54.755831,10,5,0,-1,2,6,21,9
16:31:54.763832,-5,0,-2,-4,-7,5,3,0
16:31:54.778817,-2,-3,-2,-2,-6,-9,21,-2
16:31:54.778817,3,0,1,0,-1,3,6,11
16:31:54.792809,-2,2,-5,-3,-5,-6,-6,-13
16:31:54.800803,2,1,0,0,2,0,5,-1
16:31:54.815794,-1,0,2,1,-1,1,-5,-7
16:31:54.823787,-4,-3,-1,1,0,-4,-4,-7
16:31:54.838777,1,-2,0,-3,-3,1,9,11
16:31:54.838777,-3,-2,0,-2,1,2,-27,5
16:31:54.853771,-4,1,-3,1,-1,-5,-5,-7
16:31:54.868759,-6,0,1,-2,-2,-12,6,-3
16:31:54.883752,3,2,0,1,4,2,7,23
16:31:54.883752,-8,-4,-4,-2,-3,4,-1,-11
16:31:54.897741,-4,-3,-1,-1,1,-3,-10,-17
16:31:54.898743,-1,1,-2,-1,-2,-5,-3,-1
16:31:54.913734,1,-5,-6,1,-4,-1,6,-7
16:31:54.920729,5,2,0,1,0,0,-23,11
16:31:54.935720,-7,-2,-1,0,-2,0,3,-9
16:31:54.942735,-2,-1,0,-3,3,0,9,-1
16:31:54.958707,4,-2,2,1,1,3,2,-2
16:31:54.958707,-2,1,3,0,1,-4,-6,2
16:31:54.973697,0,-1,3,0,-2,-10,-17,-9
16:31:54.980693,-5,-1,-2,-3,0,-1,6,-5
16:31:54.995680,-8,-2,2,-1,-1,3,3,-12
16:31:55.003676,-5,-2,-3,0,-3,-3,-5,-8
16:31:55.018668,-2,-3,2,-3,0,12,28,-1
16:31:55.018668,-1,0,-3,-2,1,-4,3,-2
16:31:55.033660,0,-3,-3,-2,2,-1,1,-2
16:31:55.040656,1,-2,-5,-3,-2,-8,-8,-1
16:31:55.063640,-6,-1,0,-2,0,6,-7,-2
16:31:55.063640,-6,0,-4,0,-3,-10,14,-6
16:31:55.078630,-8,-4,-3,-1,-2,-2,-13,-6
16:31:55.078630,-6,0,-4,-1,0,0,-18,-4
16:31:55.093620,4,1,0,-4,-3,-5,3,0
16:31:55.100617,-2,1,-1,-3,1,2,3,-1
16:31:55.115608,-2,-2,0,2,3,0,2,1
16:31:55.123605,-3,-4,-2,-1,2,-2,1,0
16:31:55.138592,-4,-3,-4,0,0,1,-10,-5
16:31:55.138592,-12,-4,-1,0,-3,0,-20,-15
16:31:55.153586,-5,1,0,1,-1,3,24,7
16:31:55.160578,1,-5,0,-2,1,-4,-24,-10
16:31:55.175571,-6,0,-3,-2,0,-7,-5,-11
16:31:55.183567,-1,1,-3,0,1,1,1,5
16:31:55.205554,-1,-1,-3,-2,-1,5,37,-5
16:31:55.206554,-1,1,-1,4,-2,0,-6,-3
16:31:55.220545,2,-3,-2,-2,1,2,8,15
16:31:55.221541,-4,-2,0,-1,5,7,2,-3
16:31:55.235536,-1,3,-1,-3,-3,-9,-31,-3
16:31:55.243531,13,-3,-2,-2,-1,-1,5,6
16:31:55.258522,-3,-2,0,0,-4,-9,6,-9
16:31:55.265514,-3,1,-1,-1,-2,-3,-5,-1
16:31:55.273513,-1,-1,-1,1,0,4,21,-1
16:31:55.280505,2,-1,1,-3,0,7,38,11
16:31:55.295499,7,2,3,3,7,16,40,27
16:31:55.303494,-3,-1,-5,-5,-4,-1,3,1
16:31:55.318485,0,1,-1,3,1,-2,-2,-4
16:31:55.325477,0,-3,-4,-5,-4,5,3,6
16:31:55.340471,-1,-1,2,-1,1,3,20,2
16:31:55.341470,-4,-2,0,1,1,1,0,0
16:31:55.355460,-4,-1,-4,-2,1,-1,-3,-4
16:31:55.371452,7,-1,-1,-1,1,-2,-11,2
16:31:55.378448,-1,0,0,-1,1,10,14,7
16:31:55.393439,-3,-4,-3,-5,-2,3,10,13
16:31:55.400434,-12,-4,-4,-3,-4,-11,-11,-17
16:31:55.401430,-4,-1,-6,-3,-2,0,0,1
16:31:55.416425,-6,-1,-2,-5,-1,0,2,-12
16:31:55.423417,-2,-1,-1,1,-1,-1,10,1
16:31:55.438411,-8,-2,0,-2,-1,-4,-1,8
16:31:55.445403,2,-1,-3,1,0,0,14,6
16:31:55.460394,-5,-3,-2,-2,-4,-2,9,-11
16:31:55.461397,-1,-1,-2,2,3,2,-16,3
16:31:55.476388,2,0,0,-2,-1,-2,3,2
16:31:55.483383,-6,-4,-2,-1,-5,-6,-10,-22
16:31:55.498374,-3,0,-4,-3,-3,-3,-1,1
16:31:55.505369,0,-1,0,-1,2,-7,3,-3
16:31:55.520358,-6,-2,-1,-1,-2,-7,-32,-15
16:31:55.521356,4,2,3,3,4,1,4,6
16:31:55.536352,-1,-2,1,1,4,2,-8,-9
16:31:55.543346,-4,-2,-2,-1,1,-9,-16,-5
16:31:55.558337,5,0,1,2,4,-14,-36,12
16:31:55.566333,-7,-2,-4,6,1,3,2,-2
16:31:55.580322,-7,-5,-2,-5,-5,-10,-4,-7
16:31:55.581322,-2,-1,0,-3,2,-4,6,7
16:31:55.596312,-1,2,-1,-3,-2,-4,-6,-3
16:31:55.603309,9,4,4,4,9,14,20,13
16:31:55.618300,-1,0,-3,0,3,1,-4,-1
16:31:55.625295,-3,-3,-3,-3,-3,1,17,11
16:31:55.648282,8,4,1,0,-1,2,0,9
16:31:55.649280,-4,-1,-1,-2,-3,0,-4,-6
16:31:55.655283,-6,-3,-2,-2,-6,-6,0,-8
16:31:55.663273,-1,-1,1,1,1,-2,-25,-5
16:31:55.686256,-4,-4,0,-1,-5,-4,4,-4
16:31:55.686256,-4,-3,0,3,0,-3,0,-12
16:31:55.700248,-2,-4,-4,-5,-4,-2,-10,-3
16:31:55.701247,-3,-2,-1,-2,-1,-7,-6,-17
16:31:55.716240,-2,-4,2,-1,4,14,2,-1
16:31:55.723232,-2,-1,1,0,-1,-4,-5,-6
16:31:55.738226,-2,0,1,-4,-4,-5,-5,-6
16:31:55.746221,1,1,-1,0,2,0,-1,6
16:31:55.760211,1,-2,1,-1,3,-2,-14,-5
16:31:55.761211,0,-3,-3,-1,0,-10,-33,2
16:31:55.776202,-4,-6,-3,-2,-3,2,-7,-7
16:31:55.783199,14,2,2,3,5,18,22,20
16:31:55.798189,-3,-1,0,0,-4,-5,-4,-5
16:31:55.806184,-1,-6,-3,2,-1,2,15,7
16:31:55.820175,0,-2,0,1,4,5,-7,-1
16:31:55.821173,-1,2,2,1,-1,3,55,2
16:31:55.836163,-4,1,-1,1,-1,-3,-14,-2
16:31:55.843162,-2,-2,-3,-3,-2,-1,0,-5
16:31:55.858152,-8,-1,-2,-4,3,-4,-12,-26
16:31:55.866145,1,-4,-3,0,-3,1,-9,7
16:31:55.881135,-6,0,-2,-1,-2,-4,-8,-12
16:31:55.881135,2,-2,-3,-5,-6,-5,-10,-7
16:31:55.896126,-5,-1,0,-4,-1,3,-8,-2
16:31:55.903124,2,-1,-1,-1,3,-1,5,6
16:31:55.918115,1,1,3,2,4,15,17,8
16:31:55.926107,-4,-1,-2,-4,-2,2,38,-2
16:31:55.941099,1,1,-1,2,0,2,6,8
16:31:55.941099,-4,-2,-3,-2,-1,0,4,-5
16:31:55.956090,-4,0,-2,-1,-2,-5,-13,-10
16:31:55.971083,-3,-2,-5,-3,-2,-3,2,-7
16:31:55.978078,-3,-4,-2,-3,-3,4,-9,-6
16:31:55.986073,-6,-1,0,1,1,-2,-1,-2
16:31:56.001063,0,-1,0,0,1,-8,-17,-3
16:31:56.001063,-1,-3,0,1,2,11,21,13
16:31:56.016055,-1,0,-1,0,-1,1,-6,-8
16:31:56.024047,-2,2,1,1,3,9,9,-3
16:31:56.038039,-6,0,1,0,0,-3,-2,-5
16:31:56.046033,-7,-3,0,-3,-1,-3,-7,-4
16:31:56.061027,1,0,-1,1,0,1,6,-2
16:31:56.068021,-2,1,0,0,-1,-1,4,-14
16:31:56.076018,-3,-3,1,-2,-5,-10,3,-8
16:31:56.083012,0,0,-3,-1,1,9,11,6
16:31:56.098004,10,-1,0,-3,-2,-2,4,-1
16:31:56.106000,-2,-2,-3,-4,1,-3,0,-2
16:31:56.120990,-3,-1,3,-3,-4,-11,-14,-9
16:31:56.127983,3,0,3,-1,1,3,2,7
16:31:56.135981,3,-2,2,-1,0,-3,-7,-4
16:31:56.142975,3,-1,-2,0,3,-3,12,8
16:31:56.157966,-3,-4,-1,-2,-1,-1,0,-6
16:31:56.172956,4,0,1,-2,2,13,8,-2
16:31:56.180954,-4,-3,-2,0,-3,-6,-12,-9
16:31:56.187947,-3,-4,-2,-3,3,0,1,-11
16:31:56.195944,-4,0,-1,0,0,-1,-5,-5
16:31:56.202938,17,1,0,1,1,5,4,17
16:31:56.218928,-3,0,2,0,-4,-24,-58,2
16:31:56.225926,1,-2,0,0,-2,5,26,16
16:31:56.240916,-2,-1,-2,1,3,3,8,-5
16:31:56.247910,-1,-1,-3,-2,-1,-3,-1,-1
16:31:56.256904,6,-1,-1,-1,-2,-7,-9,1
16:31:56.262899,-4,-2,0,-1,-1,-4,0,0
16:31:56.277891,-4,0,-1,2,-4,0,-4,-3
16:31:56.285889,0,-3,0,1,1,0,-2,0
16:31:56.300880,1,-2,0,0,-2,-2,-3,-1
16:31:56.315871,-6,-1,0,-3,-1,-4,-25,-6
16:31:56.322864,1,0,-1,-6,-1,-22,-20,22
16:31:56.323863,-3,-2,-1,-1,0,9,12,4
16:31:56.338859,-5,0,0,3,2,-7,-11,-9
16:31:56.345850,-7,-3,0,0,1,7,11,15
16:31:56.360843,0,-1,-2,0,0,-7,-6,-4
16:31:56.368837,2,-4,-2,-4,2,2,-8,-7
16:31:56.383828,-3,-1,1,-1,-6,-8,10,-3
16:31:56.383828,-3,-1,1,1,4,14,15,-13
16:31:56.398819,1,-1,-2,-2,-2,-4,-8,1
16:31:56.405815,-3,0,-2,0,-2,-13,-15,-3
16:31:56.420806,4,3,0,3,1,5,11,9
16:31:56.427801,4,-2,1,0,1,-2,-5,4
16:31:56.450788,0,-2,-2,-2,-3,-3,-17,-4
16:31:56.451784,-5,-5,-1,-2,-1,0,2,-7
16:31:56.457783,-1,0,-3,-6,-1,0,-10,-7
16:31:56.465778,-5,-4,-2,1,-3,-4,-8,4
16:31:56.480769,1,1,0,-4,-1,2,0,0
16:31:56.488762,-5,-3,-2,-4,0,2,4,-10
16:31:56.503753,-2,1,-2,0,2,1,3,-4
16:31:56.503753,0,-6,0,-3,0,5,18,6
16:31:56.518744,-2,1,1,0,1,3,7,-7
16:31:56.525741,-13,0,-2,1,-3,-1,-2,-5
16:31:56.540732,-3,-1,-2,-3,-2,-11,-14,-6
16:31:56.548728,-7,0,-3,0,-3,-2,-1,-5
16:31:56.563716,-4,-2,0,-3,-2,-10,-27,-9
16:31:56.563716,0,1,-1,3,1,-6,-6,-6
16:31:56.578707,-5,-2,-1,-2,-1,-1,-5,-7
16:31:56.585705,-1,-4,0,1,1,11,41,-3
16:31:56.600695,1,0,-1,0,1,-2,-5,1
16:31:56.608689,-2,0,-2,-1,-1,2,4,-2
16:31:56.623678,-2,-3,0,0,5,8,-4,1
16:31:56.623678,8,5,1,-1,-2,1,2,14
16:31:56.638669,-1,-1,-4,0,2,1,2,-5
16:31:56.645668,-7,-5,-4,-3,-1,-6,-14,-19
16:31:56.660658,-1,-1,1,0,-2,-6,1,10
