timestamp,emg1,emg2,emg3,emg4,emg5,emg6,emg7,emg8
16:22:42.046068,1,-1,-2,-2,1,-2,0,0
16:22:42.054063,-2,-6,1,-3,-7,0,-2,-2
16:22:42.061057,0,-1,-3,0,1,4,2,-4
16:22:42.076049,3,-1,0,-3,-5,-2,-4,1
16:22:42.084044,2,2,3,-17,-10,-2,0,5
16:22:42.098032,-1,-2,2,4,4,-5,-4,-2
16:22:42.099032,-1,-2,-1,-2,-1,-3,0,-1
16:22:42.113029,-1,1,-2,1,1,-2,-2,0
16:22:42.128021,-3,-3,-1,-5,-5,-3,-1,-1
16:22:42.143017,1,3,0,5,1,4,1,-1
16:22:42.144005,0,-2,1,-5,-3,-1,0,-1
16:22:42.158017,0,-2,0,0,-1,-1,-2,-5
16:22:42.165991,-3,-1,-1,-4,-8,0,-1,0
16:22:42.173987,0,-3,0,8,8,0,0,1
16:22:42.180983,-2,-3,-1,-7,-4,0,1,2
16:22:42.195973,-3,0,1,0,0,1,2,-4
16:22:42.203971,-2,-4,0,-26,-14,0,-2,1
16:22:42.218958,0,-1,1,4,2,0,-4,2
16:22:42.218958,1,1,-2,-6,-3,-3,-1,1
16:22:42.233951,3,1,0,-1,3,-3,0,2
16:22:42.240948,-3,-4,-3,-4,-6,1,2,0
16:22:42.255937,-1,-1,0,-1,-2,-3,-3,-4
16:22:42.263934,-4,0,-2,-3,0,-2,-1,-3
16:22:42.278922,1,-1,-1,-3,-3,0,-2,2
16:22:42.278922,-3,-1,1,3,3,-2,-1,2
16:22:42.300911,1,1,-1,11,5,2,3,3
16:22:42.315902,-4,-3,0,1,0,1,-4,-2
16:22:42.316900,-1,-2,-1,0,-1,-1,0,-3
16:22:42.323898,-2,1,0,4,2,-3,-2,-2
16:22:42.338885,0,0,1,1,1,-1,0,0
16:22:42.338885,2,-1,-1,-2,-7,0,-1,2
16:22:42.353878,-4,-4,-1,-1,5,-1,-4,1
16:22:42.360872,-2,0,-1,1,2,2,1,0
16:22:42.376865,0,-1,0,1,-2,-2,1,0
16:22:42.383860,-1,-1,-1,-6,-3,0,-1,-1
16:22:42.398848,-4,-1,-2,0,-4,-2,-2,-2
16:22:42.398848,-1,-1,-3,-1,6,0,0,0
16:22:42.420837,-1,-1,-2,-1,-2,-1,0,-2
16:22:42.421837,-1,-4,0,14,-3,-3,-3,-3
16:22:42.436828,-3,-2,-3,7,-2,-1,-2,0
16:22:42.443821,-1,0,-1,-1,3,-2,-1,0
16:22:42.458811,0,1,-1,-2,0,1,0,1
16:22:42.458811,-2,-2,-1,-2,-7,-3,-2,0
16:22:42.473805,-1,1,-2,1,8,-1,-1,3
16:22:42.480800,0,0,-1,0,2,0,2,-1
16:22:42.496788,0,0,-2,1,5,4,3,0
16:22:42.503785,-1,-1,-1,-2,-4,0,0,-2
16:22:42.518777,1,-3,-3,3,8,3,2,3
16:22:42.519775,-4,-4,1,3,8,-3,-3,-3
16:22:42.533768,1,-2,-1,3,0,3,-1,0
16:22:42.541761,-3,1,2,11,2,1,-1,0
16:22:42.556754,2,0,-3,3,-4,1,0,0
16:22:42.563750,-4,1,-1,3,4,1,1,0
16:22:42.585733,-1,0,-2,-4,-4,-2,-1,-3
16:22:42.586735,1,-1,0,-1,-10,-3,0,1
16:22:42.593731,0,1,1,-1,4,-3,2,-3
16:22:42.601727,0,-3,0,-3,1,-1,1,-4
16:22:42.616718,1,0,0,1,-5,-2,-1,0
16:22:42.623712,0,-1,-3,-1,-4,0,-1,1
16:22:42.638711,-1,-2,-1,0,2,-1,-3,-3
16:22:42.639704,-5,-3,-2,-2,-4,1,0,2
16:22:42.653694,-2,0,3,-2,1,-1,1,-3
16:22:42.661687,0,1,2,-9,3,-2,3,-1
16:22:42.676680,-3,-4,-2,3,-5,-5,0,-2
16:22:42.683674,-2,-1,1,-1,5,4,0,0
16:22:42.698667,-3,-3,-2,-5,-7,-3,-3,-3
16:22:42.699666,0,0,1,2,4,-2,2,3
16:22:42.713657,-3,0,0,-6,-4,0,-1,0
16:22:42.721652,4,2,2,2,4,-3,-1,0
16:22:42.736643,-3,-3,-2,-5,-2,-1,1,0
16:22:42.743639,-4,-1,0,0,-2,-2,-1,1
16:22:42.758630,1,1,1,-3,-2,-1,-1,-1
16:22:42.759627,1,0,-1,-3,4,2,1,1
16:22:42.773620,-1,0,-3,-27,-24,-5,-2,0
16:22:42.781616,-2,-2,-2,9,10,0,1,-2
16:22:42.796603,0,-1,-3,1,4,-1,1,1
16:22:42.803602,-4,-1,-2,-3,-4,-1,1,-1
16:22:42.818592,-1,0,-4,-4,-1,2,1,-2
16:22:42.826585,0,-3,0,-1,-2,-5,-2,-2
16:22:42.833582,1,-1,-1,-1,1,-1,0,0
16:22:42.841582,0,-3,-3,0,-3,-1,0,0
16:22:42.856570,1,-1,1,-2,-3,-2,2,-3
16:22:42.863565,0,-1,-3,-1,0,0,0,-2
16:22:42.878557,0,-1,-3,-4,5,-3,1,1
16:22:42.886548,-2,-3,0,10,6,-1,-2,-2
16:22:42.901539,1,-3,-1,-7,-6,0,-2,-3
16:22:42.901539,0,0,-2,0,-3,0,1,2
16:22:42.916531,-3,0,0,-4,-1,1,-1,0
16:22:42.923527,0,-2,-2,-4,-2,-3,-6,-1
16:22:42.946513,1,0,3,-1,2,2,-1,1
16:22:42.946513,-1,-2,-1,-2,-3,-2,-1,-2
16:22:42.961504,-2,-3,-3,-4,0,-4,-1,1
16:22:42.961504,0,-1,0,3,1,3,1,-1
16:22:42.976496,-1,-3,-4,-3,-5,-1,2,-1
16:22:42.984489,-1,0,1,0,6,7,1,2
16:22:42.999479,-1,1,-1,-1,-3,-4,0,2
16:22:43.006477,-1,0,0,-2,0,0,2,1
16:22:43.028464,-3,-3,-1,-26,-18,-1,0,-1
16:22:43.029463,-1,1,-1,3,1,-3,-3,-1
16:22:43.036458,2,0,0,3,3,1,1,-6
16:22:43.043451,-3,0,-1,0,1,7,-1,1
16:22:43.058445,2,0,-1,-1,0,2,-1,1
16:22:43.067438,1,-3,-2,7,-12,0,-1,2
16:22:43.081429,-6,-6,-4,-3,5,-4,-2,-6
16:22:43.081429,-3,-1,-3,-5,0,0,0,0
16:22:43.096422,-4,-3,-2,-4,-7,-3,-4,-4
16:22:43.103416,-4,-1,1,8,5,1,0,2
16:22:43.118408,-1,0,0,7,2,0,0,-1
16:22:43.126404,-2,2,-1,1,-4,0,0,-1
16:22:43.141391,-2,-2,-3,-2,-6,-2,0,-2
16:22:43.141391,-1,-1,-1,-5,-1,-1,0,0
16:22:43.156385,1,2,-1,3,8,-1,0,-1
16:22:43.163378,-1,0,4,2,5,1,3,4
16:22:43.178370,2,-1,-1,10,2,-3,-2,-1
16:22:43.186367,2,-2,0,-1,3,-1,2,1
16:22:43.201354,-1,-1,-1,-1,-1,-3,-1,-2
16:22:43.201354,0,-4,-6,-4,-4,-1,1,-1
16:22:43.218343,-1,-2,-3,-4,-1,1,0,-2
16:22:43.224342,1,-1,0,-27,-14,0,0,0
16:22:43.238331,2,0,0,6,6,2,2,3
16:22:43.253322,0,1,-2,-2,-3,1,-2,-1
16:22:43.261320,2,1,0,1,5,0,1,1
16:22:43.261320,2,-2,-1,-2,-1,7,2,3
16:22:43.276311,-3,-2,-1,-2,-6,-4,0,1
16:22:43.284305,-1,-3,-2,0,-2,-2,0,-1
16:22:43.298295,-3,-2,-2,-2,-3,-3,-4,-1
16:22:43.306293,-1,1,0,-3,-4,2,-1,1
16:22:43.321282,0,0,-2,0,-4,-3,-2,0
16:22:43.322280,0,0,0,-5,-5,-3,-3,-2
16:22:43.336271,1,1,0,-2,2,3,-2,1
16:22:43.344270,-1,0,0,1,1,1,0,1
16:22:43.359258,-3,-2,1,-2,0,-3,0,0
16:22:43.366256,2,1,1,15,11,8,3,-1
16:22:43.381247,0,-3,-2,6,-7,0,1,-2
16:22:43.382246,-3,1,-1,3,8,6,2,3
16:22:43.396237,0,2,0,-2,-3,-3,-1,1
16:22:43.404230,2,0,1,-3,-1,0,-1,-3
16:22:43.419220,-3,2,1,-2,-6,-4,0,0
16:22:43.426219,0,0,-2,0,0,-3,2,-3
16:22:43.441210,-1,-1,1,1,4,0,1,0
16:22:43.442208,7,1,2,2,7,6,1,5
16:22:43.456200,-3,-1,2,6,-6,-1,-3,0
16:22:43.463195,-3,0,-3,8,0,0,1,-1
16:22:43.478183,-2,1,2,4,6,1,-2,0
16:22:43.486182,0,2,3,13,-3,0,0,1
16:22:43.501172,-1,1,-3,1,-1,2,-2,-2
16:22:43.502172,-4,2,1,0,2,-1,-4,-1
16:22:43.516163,1,-3,-4,-6,-15,-2,-4,-4
16:22:43.524158,-2,1,-2,3,12,1,0,-1
16:22:43.539146,-1,-1,-1,-5,-1,-1,-1,1
16:22:43.546145,0,2,0,-2,2,0,-2,0
16:22:43.561136,1,2,0,-2,-2,1,2,2
16:22:43.562134,1,-1,-2,-18,-3,3,0,0
16:22:43.576127,-3,-2,-2,2,0,-3,-4,-3
16:22:43.584121,3,0,0,0,8,1,-2,-1
16:22:43.599109,3,3,2,4,6,5,2,3
16:22:43.606108,0,-1,2,-3,-3,2,-2,-4
16:22:43.621098,2,0,1,0,1,0,0,-2
16:22:43.622098,0,-2,1,-2,-4,0,-2,-3
16:22:43.636089,-1,0,0,1,-1,-3,0,0
16:22:43.644085,1,-1,1,0,-3,0,-6,1
16:22:43.666068,1,1,-1,22,1,0,2,0
16:22:43.667069,-2,0,1,-10,-2,0,-1,0
16:22:43.681062,-3,-1,-3,-3,-11,-5,-1,-2
16:22:43.682060,0,-1,2,7,6,7,-1,1
16:22:43.696052,3,2,10,-31,-15,-2,-1,-1
16:22:43.704048,0,-3,-2,16,-1,2,2,5
16:22:43.719038,0,-1,-1,-27,16,2,0,-1
16:22:43.726034,0,1,2,6,3,-4,-1,-1
16:22:43.741025,-3,-5,-8,8,3,-2,-2,-4
16:22:43.742022,-3,-1,-3,2,-6,-4,-3,1
16:22:43.756014,0,4,10,18,7,1,0,-1
16:22:43.764010,-2,-1,2,34,41,-1,-2,-1
16:22:43.785998,-1,1,-12,-38,21,8,-2,1
16:22:43.786995,1,-2,19,16,30,2,0,0
16:22:43.800988,2,6,8,-9,59,7,-4,-3
16:22:43.801987,1,0,7,-10,6,-3,3,4
16:22:43.815977,5,11,43,5,-76,-1,3,4
16:22:43.823974,2,-3,-9,12,-23,1,-1,4
16:22:43.838965,0,1,25,55,30,4,-1,1
16:22:43.845959,4,4,-19,-19,118,14,1,3
16:22:43.868945,-9,-2,-1,-30,82,-8,-6,-4
16:22:43.868945,0,-6,35,104,29,6,2,-1
16:22:43.883934,-13,-23,-31,-118,124,-21,-11,-12
16:22:43.884936,24,31,-8,-44,-100,27,20,18
16:22:43.898928,-9,-15,-40,-92,-17,-38,-11,-8
16:22:43.905921,3,16,71,7,-18,35,5,-2
16:22:43.920912,-6,-32,-67,-40,-128,-35,-1,3
16:22:43.928913,13,27,5,14,127,50,14,9
16:22:43.943897,15,5,-17,-128,-128,-23,7,15
16:22:43.943897,-5,0,20,112,127,32,1,-5
16:22:43.958888,21,19,5,0,71,21,11,16
16:22:43.965884,-20,-55,-56,-128,-107,-80,-24,-13
16:22:43.980875,-13,-8,50,71,70,14,-3,-10
16:22:43.988872,32,45,-83,-128,-128,-76,12,19
16:22:44.003861,-30,-26,42,127,127,-3,-34,-29
16:22:44.004859,1,23,-5,-128,127,38,-3,-6
16:22:44.018854,19,67,68,127,-19,51,11,5
16:22:44.025847,-66,-114,-74,17,-128,-34,-35,-38
16:22:44.040838,28,92,41,44,-55,-21,5,3
16:22:44.048835,-35,-128,-118,-30,-28,-4,-1,-4
16:22:44.063823,27,58,21,-5,-42,-19,16,16
16:22:44.063823,-2,8,24,17,-56,20,-3,-8
16:22:44.085813,16,27,-12,-33,-35,-14,5,13
16:22:44.086809,-12,-36,-12,-42,-13,0,1,-4
16:22:44.101803,37,98,73,62,-72,7,8,13
16:22:44.108799,-74,-128,-128,-68,-57,-34,-30,-35
16:22:44.123794,29,71,64,-65,-43,7,5,4
16:22:44.123794,-15,-29,-43,-28,-13,7,-1,-2
16:22:44.138780,21,26,33,60,35,-7,8,12
16:22:44.145776,-7,-19,-25,-79,-128,-12,-1,-1
16:22:44.161763,8,-15,-9,110,81,27,3,10
16:22:44.168761,26,50,85,8,127,23,11,11
16:22:44.183752,11,5,-15,-88,-128,-43,-5,0
16:22:44.184752,-50,-84,-87,-87,-41,-38,-22,-23
16:22:44.198743,24,41,34,-115,-128,-26,12,11
16:22:44.206738,-52,-83,-64,-37,-57,-42,-16,-24
16:22:44.221726,-34,-51,-25,-35,-109,-10,-16,-17
16:22:44.228722,21,14,8,127,127,58,12,15
16:22:44.243716,45,93,91,-108,127,31,10,14
16:22:44.243716,2,-24,-23,17,127,52,8,3
16:22:44.258706,-16,-31,-30,58,127,-16,-9,-9
16:22:44.266699,12,-4,-47,39,127,28,13,11
16:22:44.288688,6,20,7,-69,-65,-7,5,3
16:22:44.289685,-10,-21,18,127,8,18,9,3
16:22:44.303679,-3,2,-28,-106,-128,-30,-7,-5
16:22:44.311671,-18,-30,-1,17,-22,6,-4,-11
16:22:44.318670,-5,-7,-11,35,-29,0,-2,-2
16:22:44.326664,12,-7,-11,122,51,-10,4,8
16:22:44.341655,-5,-24,-36,-26,-41,-9,2,0
16:22:44.348651,-5,20,47,115,84,14,-8,-11
16:22:44.363642,-2,4,-1,1,-23,5,-4,-4
16:22:44.364641,-23,-29,-4,-75,-1,-1,-11,-15
16:22:44.378632,-2,3,-24,-99,-73,-20,-4,0
16:22:44.393623,4,-4,26,127,84,19,2,5
16:22:44.401617,12,21,11,-20,-23,5,4,10
16:22:44.408614,10,20,15,0,45,4,3,5
16:22:44.423605,8,1,4,14,6,5,5,5
16:22:44.424607,-10,-13,-10,2,20,-2,-6,-5
16:22:44.438596,-13,-39,-41,14,43,21,2,-4
16:22:44.445591,25,42,28,-12,-62,6,9,9
16:22:44.461581,-7,-4,-6,-54,12,11,0,-2
16:22:44.468577,-12,-28,9,127,127,1,-1,0
16:22:44.483565,11,12,-9,-33,2,1,9,12
16:22:44.484567,-18,-24,-11,79,78,17,-4,-9
16:22:44.498558,2,6,-17,-81,-51,-17,-1,-1
16:22:44.506554,2,8,4,6,36,22,5,1
16:22:44.521545,1,-7,-8,-24,-98,0,1,-1
16:22:44.528540,1,7,-7,-10,-55,-16,-6,-1
16:22:44.543531,4,10,11,-2,23,2,4,1
16:22:44.544528,4,21,42,63,76,13,1,-3
16:22:44.558521,-1,5,-4,-39,-12,-5,-3,-6
16:22:44.566517,-6,-13,-17,-20,76,24,6,3
16:22:44.581508,2,11,21,70,96,2,-3,-1
16:22:44.588503,10,13,-2,4,-1,17,5,5
16:22:44.603494,-3,-8,30,110,2,-6,-4,-1
16:22:44.604493,8,-4,-14,-16,116,26,6,7
16:22:44.618483,5,9,6,-51,-125,0,-2,-2
16:22:44.626480,11,15,20,99,104,-5,4,6
16:22:44.641468,12,28,25,47,48,-1,5,7
16:22:44.648465,8,25,33,28,20,18,6,4
16:22:44.663457,-1,-8,-17,-6,-58,-26,-1,0
16:22:44.664454,11,17,32,74,6,18,5,4
16:22:44.686440,7,17,23,19,-27,-5,3,4
16:22:44.686440,1,18,15,68,32,-20,-4,-3
16:22:44.701434,-1,1,9,15,49,13,1,1
16:22:44.708430,-20,-44,-57,-7,31,17,-2,-5
16:22:44.723420,-14,-21,-18,-41,-12,-7,-5,-5
16:22:44.724419,-16,-31,-32,4,-1,17,-5,-10
16:22:44.746403,6,21,29,3,-128,-5,0,1
16:22:44.746403,-8,-7,5,1,-1,13,1,-2
16:22:44.761397,-2,-10,-3,7,41,-8,-3,1
16:22:44.769392,11,24,24,60,127,7,6,8
16:22:44.783381,1,-8,-9,-1,-16,12,6,6
16:22:44.791378,-14,-29,-4,127,127,31,-3,-8
16:22:44.806366,3,-14,-3,-48,5,25,-1,-3
16:22:44.806366,-5,-3,-7,-10,-124,9,-1,-3
16:22:44.821360,3,2,25,127,127,-11,0,2
16:22:44.828353,7,16,11,-9,78,9,6,7
16:22:44.843344,3,-6,-16,-75,-128,-41,-7,2
16:22:44.851342,-23,-40,-33,46,-91,-1,-13,-16
16:22:44.866330,-31,-61,-67,-39,-53,-23,-12,-16
16:22:44.866330,6,15,14,6,39,9,5,2
16:22:44.888319,4,-2,-2,44,77,5,3,6
16:22:44.889315,5,19,9,-64,-80,-36,0,1
16:22:44.904307,-3,-3,2,35,57,12,1,-3
16:22:44.911304,6,22,16,-3,52,17,4,-1
16:22:44.926293,-5,-1,-8,21,84,8,1,0
16:22:44.926293,-4,-28,-33,61,12,-25,-5,5
16:22:44.941286,5,13,14,-12,-21,-2,0,1
16:22:44.949281,-2,1,2,63,127,37,0,-3
16:22:44.964269,5,-4,-5,56,127,-14,4,3
16:22:44.971268,6,3,-6,-102,-128,-13,5,5
16:22:44.986259,4,5,0,5,-128,-29,0,3
16:22:44.987257,-21,-25,-14,49,127,47,-7,-13
16:22:45.001249,-6,-28,-16,-33,74,-44,0,5
16:22:45.009244,1,4,-1,-13,-124,17,4,-2
16:22:45.024235,4,11,5,13,-77,-28,0,1
16:22:45.031231,-6,-9,-8,5,127,46,-1,-7
16:22:45.046222,-3,3,4,27,57,24,-3,0
16:22:45.046222,1,0,-7,-59,-128,-41,-2,2
16:22:45.061212,-17,-23,-15,81,127,63,-7,-11
16:22:45.069205,-3,2,1,-21,-85,-8,-4,3
16:22:45.084195,3,2,-3,-27,-40,-29,-1,1
16:22:45.091194,-2,1,7,61,79,16,2,-1
16:22:45.106185,2,-3,-4,-15,2,-3,-8,1
16:22:45.107181,1,3,3,42,127,17,32,2
16:22:45.121176,-2,1,1,-4,-25,-26,-20,-37
16:22:45.128173,0,-9,1,1,-14,23,-15,51
16:22:45.144161,4,14,1,2,-17,-18,50,-77
16:22:45.159155,-12,-27,-14,-12,-8,26,96,3
16:22:45.166146,12,3,0,3,-6,-14,13,28
16:22:45.167144,35,9,12,8,9,-4,127,-61
16:22:45.181138,-12,-27,-30,-30,-17,42,-57,-4
16:22:45.196129,-33,-14,-8,-7,-24,-30,-9,-69
16:22:45.204124,-8,21,28,27,22,33,127,-13
16:22:45.211120,-33,-41,-43,-47,-42,-45,-83,13
16:22:45.226108,-4,6,10,12,1,-56,-38,-80
16:22:45.227108,61,7,7,5,38,104,-128,127
16:22:45.241101,-11,-21,-28,-27,-57,-98,58,5
16:22:45.249094,-48,16,21,19,19,5,24,-53
16:22:45.264087,-21,-33,-23,-40,-14,-3,-19,19
16:22:45.271083,-4,4,4,24,56,-4,-14,-9
16:22:45.286074,-8,-7,-29,-128,-36,0,-6,5
16:22:45.287073,-4,2,21,56,13,-8,-3,-5
16:22:45.301065,-12,-39,-29,-42,-30,-52,-13,-11
16:22:45.309060,-11,7,-8,-40,-2,-4,-14,-21
16:22:45.324051,41,18,0,49,19,16,5,9
16:22:45.331046,16,6,17,6,7,-44,-17,-8
16:22:45.346035,-35,-5,-28,-97,-107,32,0,3
16:22:45.347035,7,9,42,127,127,-8,11,9
16:22:45.361026,0,4,24,39,-40,-26,-1,-12
16:22:45.369022,38,29,-4,-43,-74,0,6,12
16:22:45.384016,-51,-22,-5,-10,-128,23,-5,-26
16:22:45.391009,33,9,-2,-5,7,8,30,18
16:22:45.413993,6,7,6,3,-1,16,-17,-11
16:22:45.413993,2,1,-6,3,-21,3,22,26
16:22:45.420989,-1,1,-1,-8,127,32,-3,-4
16:22:45.435978,-1,2,5,36,-116,-29,-3,-5
16:22:45.443977,-9,-6,-4,12,11,-4,-17,-25
16:22:45.450972,13,1,0,-14,-19,-5,0,25
16:22:45.465963,4,0,6,1,-22,9,0,-28
16:22:45.466960,-15,3,0,-2,-18,2,-10,-31
16:22:45.480953,-7,0,0,-4,-10,1,4,8
16:22:45.488949,-3,1,3,1,4,-3,-4,-6
16:22:45.503940,1,-2,0,40,6,-3,0,-5
16:22:45.510932,0,-5,-1,45,127,4,2,2
16:22:45.525926,-5,-5,-6,103,127,14,-7,-3
16:22:45.533922,-3,-1,-1,13,-32,-11,-5,-1
16:22:45.540914,1,-1,3,11,10,7,2,-2
16:22:45.548909,1,1,2,-1,-11,2,0,2
16:22:45.563903,0,0,0,0,-5,4,0,-1
16:22:45.570896,2,2,-2,3,1,-3,0,-1
16:22:45.585889,-4,-4,-5,33,17,-1,-3,-2
16:22:45.586889,-4,1,3,-6,-25,-6,-2,2
16:22:45.600878,-1,-2,3,18,21,4,-3,-2
16:22:45.608875,-3,-3,-7,-49,-48,-6,2,0
16:22:45.623866,3,3,1,10,8,0,-4,-2
16:22:45.630859,0,-2,1,3,4,-1,3,1
16:22:45.645852,-4,3,-2,-1,10,-1,-5,-1
16:22:45.646850,-4,-2,-2,-2,0,5,3,-3
16:22:45.660841,-3,-1,-3,-1,-6,0,-3,1
16:22:45.668838,-6,-2,1,16,6,5,1,-8
16:22:45.683829,0,1,-5,-6,-8,0,2,0
16:22:45.690822,-1,-1,0,-4,2,7,1,0
16:22:45.705813,-5,-4,-1,33,18,-4,-4,-6
16:22:45.720806,-3,-2,-4,0,-25,-1,-1,0
16:22:45.721805,1,-3,-2,3,53,-1,-1,-3
16:22:45.728801,0,-1,1,2,-1,2,2,0
16:22:45.743792,-1,-1,-1,-1,-5,-2,-3,-2
16:22:45.750785,1,-2,-2,0,-2,1,1,0
16:22:45.766777,-2,0,0,-22,3,2,1,0
16:22:45.773774,0,-4,-4,9,-3,-1,4,0
16:22:45.788765,3,2,3,2,-4,-2,-1,5
16:22:45.788765,-5,-4,-2,0,-1,2,0,-2
16:22:45.803755,1,0,-3,-3,3,4,-1,0
16:22:45.810751,-1,-3,-1,3,0,-4,1,-1
16:22:45.826740,0,1,-1,-2,1,-2,0,-4
16:22:45.833736,-2,-2,-5,-11,-7,-1,0,-2
16:22:45.848727,-1,-3,3,2,0,-5,1,-2
16:22:45.848727,0,1,0,-1,1,-3,2,1
16:22:45.863715,-3,-2,-1,-6,-6,-6,-4,-4
16:22:45.871713,2,-3,1,2,2,5,3,3
16:22:45.886701,-2,2,-4,2,5,5,12,11
16:22:45.893700,-2,-1,-2,-30,-9,3,5,-1
16:22:45.908691,-2,-2,0,-3,3,10,4,7
16:22:45.909687,-4,-3,-1,9,10,-2,-5,-3
16:22:45.923681,2,1,0,1,7,0,-1,2
16:22:45.931674,-2,-3,1,-3,-6,1,-3,-1
16:22:45.953663,3,-3,-1,-1,1,0,-2,-3
16:22:45.954662,-2,0,-3,1,1,0,1,2
16:22:45.968650,0,-4,0,-1,-5,-4,-6,-3
16:22:45.976655,3,2,2,5,7,13,2,6
16:22:45.991638,-2,-2,0,-1,0,-2,0,-2
16:22:45.991638,-1,-2,0,6,-7,-5,-3,-3
16:22:46.006631,-2,-2,-2,0,1,0,-1,1
16:22:46.013626,-6,-2,-3,-4,-5,-2,0,1
16:22:46.028617,-3,-4,-1,-4,1,-1,0,1
16:22:46.029613,-3,0,-2,-1,-4,-1,-2,-3
16:22:46.043608,-2,-2,-4,-1,-1,0,-4,-8
16:22:46.051603,5,4,4,6,16,14,6,9
16:22:46.066591,-2,-3,-4,-3,0,1,5,0
16:22:46.073589,3,0,-2,-1,-2,-2,-2,-3
16:22:46.088580,2,-1,-3,2,5,0,-7,-12
16:22:46.089579,-2,-1,1,13,14,-1,3,9
16:22:46.103571,0,-1,-3,0,-1,-1,-22,-7
16:22:46.111566,-5,-4,-1,-1,-4,-2,-10,-18
16:22:46.126554,5,2,-2,-1,2,17,21,16
16:22:46.133549,-4,0,0,0,-1,9,20,-11
16:22:46.148543,10,3,1,5,6,-7,-14,24
16:22:46.149540,1,1,1,0,4,9,-1,1
16:22:46.171526,-7,-4,-4,-6,-3,-2,-11,-11
16:22:46.171526,-1,-2,-1,1,-3,-5,-1,-5
16:22:46.186520,-2,-5,0,-1,-2,2,-4,-4
16:22:46.193515,7,3,3,1,-5,3,7,16
16:22:46.216498,-2,0,-1,-2,4,1,-11,1
16:22:46.216498,-3,-2,1,9,-2,-3,0,1
16:22:46.223493,-4,-1,-1,-4,-5,-7,-7,0
16:22:46.231495,2,2,1,-2,-3,-9,-1,8
16:22:46.246483,1,0,0,1,-3,-10,-13,-5
16:22:46.253477,-1,-3,-3,8,1,1,3,2
16:22:46.268469,3,-1,0,1,5,8,5,2
16:22:46.269466,-4,-3,-4,-19,-8,1,4,-11
16:22:46.283459,2,-1,-1,11,8,2,-2,2
16:22:46.291452,1,-1,-2,-4,-1,-1,1,-3
16:22:46.306446,0,3,0,-1,-2,-3,-8,-5
16:22:46.313439,-3,-2,-1,-2,-8,1,-2,-1
16:22:46.328432,3,-3,0,-3,3,1,10,19
16:22:46.336427,-1,-2,-2,-5,-3,7,5,3
16:22:46.343422,-3,-3,-4,0,4,0,0,-3
16:22:46.351418,0,2,1,1,3,10,8,2
16:22:46.366407,3,4,-1,-3,1,1,3,2
16:22:46.373401,-6,-4,-2,-1,-2,0,-2,-7
16:22:46.388395,-1,1,-6,-6,-4,-2,-3,-1
16:22:46.389392,0,0,-1,0,-3,-2,0,-1
16:22:46.403386,-1,0,-1,-3,-2,-3,-1,-2
16:22:46.411379,0,1,2,-17,-2,-1,18,9
16:22:46.426372,-1,-2,0,5,6,0,-7,0
16:22:46.433365,-4,0,-1,0,-7,-2,-1,-1
16:22:46.448358,-3,-2,0,-6,-2,5,-1,1
16:22:46.449358,-1,0,1,2,-1,-2,6,-2
16:22:46.463347,3,-1,-2,-4,-3,-3,6,2
16:22:46.471345,-1,-3,1,-13,-6,-1,3,-2
16:22:46.494330,0,3,-1,7,-6,3,1,-4
16:22:46.494330,-5,-1,-3,-2,0,-9,1,-4
16:22:46.508318,3,3,0,0,3,2,-1,0
16:22:46.509321,5,-1,1,1,-1,2,11,14
16:22:46.524312,-4,-1,0,-1,-3,-2,-5,-6
16:22:46.531307,-2,-2,-1,-2,4,0,0,-1
16:22:46.546298,0,-2,-4,-2,-1,-3,-4,0
16:22:46.554293,1,-1,-3,2,1,0,0,2
16:22:46.568282,-3,-3,-2,-1,-2,-2,-5,-1
16:22:46.569282,-1,-2,1,0,-1,-3,-7,2
16:22:46.584273,-4,-3,-2,-5,-2,-1,-3,-2
16:22:46.591270,0,-1,3,-11,7,0,10,1
16:22:46.606261,-2,-3,2,11,14,1,4,3
16:22:46.613257,-2,-1,-3,-3,3,0,0,-1
16:22:46.628247,0,0,-1,2,4,2,-2,-8
16:22:46.629247,-3,-2,-4,-1,-2,3,12,4
16:22:46.644238,-2,-1,0,0,1,0,-1,-3
16:22:46.651234,-1,-3,0,1,-1,1,0,-1
16:22:46.666223,-2,-1,-3,-1,-5,2,0,-2
16:22:46.674217,-1,0,2,2,-1,4,-1,2
16:22:46.689208,-2,0,-2,1,0,1,-2,-4
16:22:46.696206,1,0,-1,0,0,0,1,0
16:22:46.726187,1,0,2,3,5,-1,8,6
16:22:46.727184,-4,-4,-6,-1,0,-5,-16,-4
16:22:46.727184,1,-1,-1,-2,-1,1,4,2
16:22:46.734180,-3,-2,1,-3,-12,-2,1,-2
16:22:46.749170,0,1,-3,-2,-1,-3,-7,-5
16:22:46.756169,-7,-6,-5,-5,-10,-4,1,0
16:22:46.779157,0,-2,-1,10,2,1,-2,-2
16:22:46.779157,-4,-4,-1,2,0,-2,7,-5
16:22:46.786151,-2,-4,-1,1,5,3,-7,-2
16:22:46.794146,-2,0,0,-1,-1,3,1,-1
16:22:46.809137,0,-2,-3,3,0,-1,1,3
16:22:46.816132,-2,-1,0,0,2,-2,1,2
16:22:46.831123,-1,2,-3,0,1,0,-5,-3
16:22:46.832124,-2,-1,1,-11,-11,-1,-5,-1
16:22:46.846114,-3,0,-3,2,2,2,-7,-8
16:22:46.854107,-2,-3,0,-29,-17,-3,-4,0
16:22:46.869099,4,0,0,5,11,0,-3,5
16:22:46.876095,-1,0,-2,2,-3,-3,20,-4
16:22:46.891086,4,3,1,-1,-4,-6,-7,0
16:22:46.892082,1,-2,1,-2,-13,0,3,0
16:22:46.906077,-1,2,-2,3,5,1,1,1
16:22:46.914072,-1,-1,2,-1,-2,4,1,1
16:22:46.929062,-1,-1,-3,0,3,3,-2,-4
16:22:46.936058,-1,0,2,1,-11,-3,0,-1
16:22:46.951049,2,-1,-1,-1,3,-5,-8,1
16:22:46.952049,-3,-2,-4,5,-4,-3,1,-2
16:22:46.966039,-3,-1,-1,-4,-1,2,-3,2
16:22:46.974035,1,-2,-2,14,6,1,1,-5
16:22:46.989026,-1,1,-1,2,-2,-1,-3,0
16:22:46.996021,0,-1,-3,1,-2,-1,-2,-2
16:22:47.019005,3,-3,-2,-3,0,-2,-1,-2
16:22:47.019005,-2,-4,-2,-3,-2,0,0,2
16:22:47.026001,1,-2,-1,-1,-3,0,-2,0
16:22:47.033998,-3,-2,-2,0,-1,2,-1,-1
16:22:47.048989,4,1,-1,-2,-1,0,1,1
16:22:47.055982,3,0,0,-1,1,11,27,26
16:22:47.070975,1,1,-2,-1,-2,2,-3,-3
16:22:47.071972,-4,0,-4,-2,1,0,0,-4
16:22:47.093959,5,3,1,7,5,3,2,2
16:22:47.094960,0,-1,0,-1,0,1,2,3
16:22:47.108952,0,-3,1,-1,-1,5,0,-2
16:22:47.115957,0,-1,0,1,-2,-6,-1,-3
16:22:47.138931,4,1,0,3,3,8,14,4
16:22:47.138931,7,2,5,3,11,6,-5,6
16:22:47.145938,-3,-1,1,-1,-7,-3,-9,-10
16:22:47.153924,1,1,-1,-2,-1,-1,0,0
16:22:47.168915,-3,-3,-3,-5,-2,-4,0,-3
16:22:47.175911,2,1,-2,-1,1,3,2,0
16:22:47.190901,1,1,0,3,-1,5,4,2
16:22:47.191898,0,1,0,4,2,0,0,1
16:22:47.205890,1,-1,-2,-3,-4,-2,0,-1
16:22:47.213884,-4,0,0,2,0,0,-8,-3
16:22:47.228878,-2,0,-1,1,6,1,16,-2
16:22:47.235871,-2,-1,-3,-1,-6,0,15,1
16:22:47.250864,-1,-2,-1,3,6,-1,-4,-5
16:22:47.258857,1,-3,0,1,3,3,2,2
16:22:47.273850,-4,-1,-1,-1,0,-4,-4,-2
16:22:47.273850,-3,0,-3,-3,-2,-1,2,2
16:22:47.288841,-1,-3,-2,0,-4,1,10,-2
16:22:47.295834,-1,-1,-1,-1,-5,-2,-2,-1
16:22:47.310826,-1,0,-1,-1,-5,2,0,1
16:22:47.311827,-4,1,-1,-4,-2,-1,1,1
16:22:47.325816,1,0,-2,-1,-2,-5,9,-2
16:22:47.341810,-3,1,-1,2,2,-5,-9,0
16:22:47.355796,1,0,0,0,1,0,5,5
16:22:47.356799,-2,-2,2,3,-1,-2,-3,-4
16:22:47.370788,1,-1,0,-3,-3,0,6,11
16:22:47.378786,-1,-1,-3,-1,-1,-1,1,-1
16:22:47.386781,1,0,0,0,3,6,12,7
16:22:47.393777,-3,-2,1,-1,-1,1,2,-3
16:22:47.408767,-1,0,-2,0,1,-1,-2,-1
16:22:47.415759,1,0,-2,-2,-4,-3,-7,-4
16:22:47.431751,1,1,-1,3,0,-3,0,3
16:22:47.446744,-2,-2,-1,1,-2,-3,-9,-3
16:22:47.446744,0,-3,-2,-1,-5,-8,0,0
16:22:47.453740,-1,-1,-3,0,-1,1,13,9
16:22:47.468731,-4,0,-2,-1,-3,-1,-2,-4
16:22:47.476726,-1,0,1,0,-1,-3,0,0
16:22:47.491716,1,0,-1,2,-3,-8,4,-1
16:22:47.498712,-2,-2,0,0,-2,1,4,-1
16:22:47.506705,0,1,1,0,-2,-1,-3,-3
16:22:47.513703,-4,1,-2,-1,-4,0,1,-4
16:22:47.528693,-2,0,-1,-1,9,-4,-13,-1
16:22:47.536685,-1,-1,-1,1,-4,-2,4,6
16:22:47.551679,1,1,-1,1,2,-2,-10,0
16:22:47.558675,1,-1,-1,-2,-2,-2,1,-1
16:22:47.566667,3,5,2,3,7,7,4,2
16:22:47.573666,-1,0,2,4,3,-8,-7,-4
16:22:47.588656,1,-3,-2,-4,-4,-6,1,5
16:22:47.596652,0,3,0,0,-5,-3,4,-1
16:22:47.611642,2,1,1,10,2,0,-3,-2
16:22:47.618638,-4,-4,-1,1,1,-3,6,-1
16:22:47.626637,-3,-5,-1,-4,-1,1,0,-1
16:22:47.633628,0,1,-3,-3,-10,-1,8,2
16:22:47.648619,2,2,2,2,2,0,-15,-2
16:22:47.663610,0,-2,-1,0,-1,-4,-11,1
16:22:47.671602,0,0,-2,3,1,5,6,0
16:22:47.678601,-2,-1,-2,-1,-3,-4,-4,-1
16:22:47.693592,0,-1,-4,-1,0,-3,4,1
16:22:47.694590,-2,-1,-1,-3,-3,-1,2,1
16:22:47.708583,-3,-3,-5,-2,-2,-3,0,0
16:22:47.716574,-1,0,1,-2,-2,-1,2,1
16:22:47.731567,1,1,1,0,2,1,0,0
16:22:47.738564,-2,-4,1,2,-6,-3,12,1
16:22:47.753555,0,4,3,4,5,-1,-6,0
16:22:47.754552,-3,-2,-3,-2,-2,3,7,4
16:22:47.768546,-2,-1,-1,-3,1,4,-1,-2
16:22:47.776541,-2,-1,-1,-3,3,-3,-3,2
16:22:47.791532,-3,-1,1,-2,0,0,1,-2
16:22:47.798527,-1,-2,0,-1,-2,-1,-9,-4
16:22:47.813518,3,2,5,1,1,-1,2,2
16:22:47.814516,-6,-2,-1,-1,0,0,2,0
16:22:47.828508,-1,3,0,3,9,3,14,5
16:22:47.836504,-1,-3,1,2,2,6,-1,-3
16:22:47.851495,1,-1,-2,-3,0,-1,7,6
16:22:47.858490,-2,-4,-1,-1,-1,0,0,0
16:22:47.873481,-1,1,-3,1,-3,-1,-3,-2
16:22:47.874480,-2,-2,0,-1,-3,1,-1,-4
16:22:47.888470,-3,-1,0,-2,-2,0,1,-2
16:22:47.896466,-1,-3,-1,0,0,-3,-2,0
16:22:47.911455,-2,-2,-2,-4,-1,-2,-3,-1
16:22:47.918452,-1,-1,0,0,-5,-4,-3,2
16:22:47.933444,-2,0,1,-2,-1,-1,-3,1
16:22:47.934441,0,-2,-1,-3,-1,0,4,-1
16:22:47.948432,0,0,0,-2,0,-4,-8,-1
16:22:47.956430,-2,-2,-3,-1,-2,0,3,0
16:22:47.971421,0,-2,2,1,4,5,-3,2
16:22:47.978417,-2,-1,-4,0,-3,-1,3,2
16:22:47.993407,-1,-1,2,-1,-3,-2,1,2
16:22:47.994404,-1,-3,-3,-3,0,-2,-1,-4
16:22:48.008395,0,0,0,-1,-3,0,1,-2
16:22:48.016391,-3,-1,0,-3,2,0,-3,-1
16:22:48.031384,0,-1,-1,-2,0,-5,-7,2
16:22:48.038377,0,-2,-1,-3,0,1,-1,-3
16:22:48.053369,-4,-1,2,-1,-1,3,-9,-4
16:22:48.054367,-1,0,0,1,1,-1,-3,2
16:22:48.068359,-2,3,-4,1,-1,-3,10,0
16:22:48.076357,1,-1,1,0,-2,-2,-2,-2
16:22:48.091347,-3,0,1,-2,-2,-2,2,0
16:22:48.098340,-2,-2,0,-2,-4,1,1,0
16:22:48.113332,3,-1,1,4,7,7,3,1
16:22:48.114333,-3,0,1,-1,2,-1,1,2
16:22:48.128322,0,2,1,1,0,-3,-2,2
16:22:48.136319,-1,-2,-1,-3,-2,2,5,8
16:22:48.159305,-4,-4,-1,-3,1,0,-1,-2
16:22:48.159305,2,0,5,2,3,-2,-8,4
16:22:48.173293,-3,1,-3,-2,0,0,1,0
16:22:48.174295,1,0,-1,0,1,-2,2,2
16:22:48.196282,-3,-1,-4,-3,-3,-1,-5,-1
16:22:48.204277,-1,0,-3,-2,-5,-3,-8,1
16:22:48.211273,3,4,3,3,2,7,7,5
16:22:48.219265,-2,-1,-3,-1,-4,-1,-1,0
16:22:48.234257,0,-2,-3,-4,-2,0,-2,-3
16:22:48.234257,-3,-1,-2,-1,-3,-2,2,-2
16:22:48.249249,0,-1,-1,-1,-1,-4,-4,0
16:22:48.256246,-1,2,-2,-1,-1,-1,2,-2
16:22:48.278230,1,-1,-1,0,-4,-7,-14,-1
16:22:48.279229,-2,-3,-6,-1,-2,0,-1,-1
16:22:48.293223,0,-3,-2,-1,0,-4,-1,-2
16:22:48.294219,-5,-2,-4,-3,-1,1,0,-5
16:22:48.309213,-2,1,-1,1,1,0,-1,4
16:22:48.316208,-2,-1,-1,-4,-4,-4,-2,0
16:22:48.331199,-2,-2,0,-3,-4,-1,-3,1
16:22:48.339191,0,-3,1,2,-2,-1,-4,2
16:22:48.353184,0,-2,-3,-1,-3,-1,5,4
16:22:48.354183,0,1,0,2,0,0,0,1
16:22:48.369173,2,0,0,-1,0,4,-5,-1
16:22:48.376172,0,-3,-3,0,-2,0,0,0
16:22:48.391162,0,-1,0,-4,-2,-2,0,-1
16:22:48.399157,2,0,-2,1,-1,2,1,2
16:22:48.414147,-3,-3,0,-1,-1,-3,0,0
16:22:48.414147,-3,0,0,-2,1,0,0,1
16:22:48.436135,-5,1,-2,-3,-4,-2,-1,-4
16:22:48.437133,-2,-3,-2,-2,-2,1,-2,-1
16:22:48.451126,0,0,0,1,0,-3,-4,-3
16:22:48.459120,0,2,2,1,1,3,1,1
16:22:48.474109,-2,-2,1,-2,-3,-2,0,0
16:22:48.474109,-1,3,1,-4,0,0,3,0
16:22:48.496098,-1,1,1,-1,1,-3,-1,-1
16:22:48.497094,-3,2,-1,5,6,4,3,0
16:22:48.511089,-2,0,-1,1,-1,-4,-5,-2
16:22:48.519085,-1,0,-3,-2,-2,-2,-9,1
16:22:48.534071,1,-2,0,0,-6,-1,2,5
16:22:48.534071,-1,1,-1,0,2,2,2,1
16:22:48.549062,0,0,-3,-1,0,-3,-1,0
16:22:48.556061,1,-3,3,-3,2,2,0,1
16:22:48.571052,-1,-1,-2,-3,-6,0,-1,0
16:22:48.579045,-2,1,-1,3,4,-4,0,1
16:22:48.594038,-2,0,-4,0,-3,2,-7,-1
16:22:48.601030,-3,-2,0,-3,0,0,1,2
16:22:48.616024,-4,1,-1,1,2,3,11,2
16:22:48.617023,-1,1,-1,1,0,3,2,-2
16:22:48.631014,-1,-2,1,1,0,-1,0,2
16:22:48.639010,-2,-3,-1,0,-3,0,2,1
16:22:48.654001,-4,-1,-3,0,-3,1,-1,-5
16:22:48.660994,1,-4,0,-1,2,9,3,3
16:22:48.675987,0,2,0,2,2,0,-3,1
16:22:48.676986,-6,1,-3,-4,-1,-1,-2,0
16:22:48.690978,-1,-2,-3,0,5,3,4,2
16:22:48.698973,-4,-2,0,-1,-5,-2,-3,-2
16:22:48.713964,0,-2,0,2,0,0,3,1
16:22:48.720957,-1,0,-1,3,1,1,1,2
16:22:48.735950,-4,-4,-3,0,-5,-4,0,1
16:22:48.736949,1,-1,0,-5,-3,2,22,1
16:22:48.750940,0,3,0,1,-3,-5,-4,-1
16:22:48.758936,0,0,-2,-3,1,4,5,0
16:22:48.773927,-1,1,-1,1,0,-4,1,0
16:22:48.780920,1,1,1,-3,-3,-5,-2,1
16:22:48.795913,-1,0,0,0,-1,-1,-3,-3
16:22:48.796910,-3,-1,1,-1,-1,1,-1,-3
16:22:48.810906,-2,0,0,0,1,-1,-1,-2
16:22:48.818900,-3,2,0,-2,1,2,-1,-1
16:22:48.833890,2,0,-3,-2,-1,-2,1,-1
16:22:48.840885,-1,-3,2,-3,2,1,1,1
16:22:48.855876,-1,-2,-1,0,1,0,-1,0
16:22:48.856875,-1,-1,-2,-3,-6,-1,2,-3
16:22:48.870865,-1,2,0,-2,-4,-7,-5,-1
16:22:48.878862,-1,0,-1,-1,0,-1,0,0
16:22:48.893853,1,-4,-1,-5,-4,-2,-1,-4
16:22:48.901849,-4,0,-1,0,0,0,2,1
16:22:48.915838,-1,-2,-2,-2,-2,-1,-1,0
16:22:48.916839,0,-1,1,-2,-3,2,0,0
16:22:48.931835,-1,-1,-1,-1,-2,-2,2,0
16:22:48.938825,-2,-2,-2,-4,-7,-3,-10,-4
16:22:48.953816,-1,2,3,1,0,1,1,-4
16:22:48.961811,0,1,-1,0,0,-1,-1,-1
16:22:48.975799,-1,-4,-3,-3,-4,-3,-1,-2
16:22:48.976799,0,0,-2,0,-1,0,-2,-1
16:22:48.990791,-1,-2,-1,-1,1,0,-3,-1
16:22:48.998788,-2,0,0,-2,2,1,-3,-2
16:22:49.013779,-4,-4,-2,-2,-3,-2,-2,-3
16:22:49.021773,1,-2,-3,1,1,0,-1,0
16:22:49.036762,2,1,0,1,1,1,2,2
16:22:49.036762,-2,-1,0,1,2,1,-2,-3
16:22:49.051756,-2,1,-2,3,-1,-3,-3,-3
16:22:49.058752,1,3,-1,-1,0,-2,-1,0
16:22:49.081736,1,-2,-4,0,0,-3,0,-1
16:22:49.081736,-2,-1,-1,-3,-1,1,0,-1
16:22:49.095726,1,-3,0,-1,-3,-2,-1,-2
16:22:49.096728,-2,-1,-2,-3,1,0,-2,-4
16:22:49.111716,-3,-3,-3,-1,-1,-1,1,4
16:22:49.118715,-1,-2,1,0,0,-1,0,0
16:22:49.133705,-3,-2,-1,0,-7,-4,-2,-4
16:22:49.141701,-1,-1,0,-3,3,-4,-1,-2
16:22:49.156688,0,2,-1,1,0,3,0,2
16:22:49.156688,-5,-3,-1,0,1,4,1,-4
16:22:49.171682,3,0,-1,-2,0,1,1,5
16:22:49.178678,0,0,-1,2,4,-1,-1,-1
16:22:49.193669,-2,-1,-1,-1,-3,-1,-2,-3
16:22:49.201663,1,0,-1,-3,2,0,-3,0
16:22:49.216651,0,-1,-2,-2,-4,-4,-2,0
16:22:49.223647,0,-1,1,1,4,3,1,2
16:22:49.231642,-3,-3,-3,-4,-8,0,-3,-3
16:22:49.238641,-2,0,-2,-1,2,2,0,-3
16:22:49.253632,-1,0,0,-3,-3,-3,-1,0
16:22:49.261626,2,-2,-1,0,1,1,3,1
16:22:49.276614,-2,0,-1,-4,-1,-1,0,-1
16:22:49.276614,-2,0,0,-3,1,0,1,0
16:22:49.298604,-2,1,-3,-1,2,2,1,-1
16:22:49.299601,2,0,1,3,4,0,1,-1
16:22:49.313595,0,2,1,0,-2,1,1,1
16:22:49.321591,-1,-2,0,-1,-6,-5,-5,-4
16:22:49.336578,-2,-2,-3,-2,-1,-3,-2,2
16:22:49.336578,-1,0,-1,-1,-1,0,-1,-1
16:22:49.351568,-2,-1,-1,-2,-3,-1,-1,-2
16:22:49.358567,-2,1,2,2,3,1,-1,0
16:22:49.373558,-4,-2,-1,-4,1,-1,0,0
16:22:49.388548,4,1,5,4,2,1,3,3
16:22:49.396540,1,1,0,1,4,1,-2,-2
16:22:49.396540,-1,2,1,2,4,-3,2,-1
16:22:49.411532,-2,-4,-2,-1,-2,0,-1,-1
16:22:49.418530,0,1,1,4,1,-4,-4,-1
16:22:49.433521,0,1,-1,0,-1,-3,-3,-2
16:22:49.441516,-2,0,0,-5,-2,3,0,-3
16:22:49.456504,0,0,2,1,2,2,1,1
16:22:49.456504,-1,3,1,-1,2,0,3,1
16:22:49.471497,0,3,-1,-1,-1,-2,3,-5
16:22:49.478493,-1,0,1,0,2,-6,-3,2
16:22:49.493481,2,-4,-1,-1,-4,-4,-1,0
16:22:49.501476,-1,-1,-1,2,-3,2,-2,-4
16:22:49.516470,0,-1,-4,-1,-4,-3,-2,-2
16:22:49.523464,0,0,-1,0,-3,0,2,-1
16:22:49.531458,1,-1,1,-2,1,-2,0,-4
16:22:49.538455,-1,-4,-1,-1,1,-2,1,1
16:22:49.553446,-3,-1,2,-2,4,-2,0,-4
16:22:49.561442,3,-1,-2,-3,-1,-1,0,0
16:22:49.576433,-2,1,-1,2,-2,-2,0,-2
16:22:49.583426,2,3,3,2,1,7,-2,-1
16:22:49.606411,1,1,-1,2,8,5,1,3
16:22:49.613410,2,-2,3,0,1,-1,0,-2
16:22:49.614408,3,1,3,0,2,-2,0,2
16:22:49.621405,-3,-1,-1,0,-5,-1,0,-4
16:22:49.643391,-3,-1,-2,-3,1,-2,-4,0
16:22:49.644388,-1,0,-1,-1,4,0,-3,-3
16:22:49.658382,-3,-2,1,-4,1,-2,-1,1
16:22:49.659379,1,-1,0,0,0,0,-1,-1
16:22:49.673371,-2,-3,-3,-3,-3,1,-1,-1
16:22:49.681368,2,-2,1,0,2,1,1,-1
16:22:49.696359,1,1,-1,1,3,-2,0,1
16:22:49.704352,1,1,1,2,5,7,3,1
16:22:49.718344,-4,-1,-4,-2,-5,-3,-3,0
16:22:49.719342,-5,-2,-2,0,-3,-2,-2,-3
16:22:49.734333,1,0,-3,-1,0,1,-2,-2
16:22:49.741331,-2,-3,-1,-3,-3,2,0,2
16:22:49.756322,4,-1,2,-1,-2,-2,-1,0
16:22:49.763315,2,-1,2,1,2,3,-2,-3
16:22:49.778307,1,-1,2,3,0,-4,-2,1
16:22:49.779308,-1,2,2,-2,-1,-3,0,-2
16:22:49.793297,-1,3,0,-1,-3,-3,-4,1
16:22:49.801294,4,1,1,-1,1,-1,-3,-1
16:22:49.831276,1,-3,1,-2,-4,-1,-1,-2
16:22:49.832273,-1,1,-1,-2,-3,-2,-1,-1
16:22:49.846267,-1,1,0,-3,-4,-2,0,-2
16:22:49.847265,1,-1,-1,2,1,5,1,0
16:22:49.853261,-2,0,3,2,0,0,0,1
16:22:49.861258,-4,0,-3,3,1,3,-1,0
16:22:49.876248,-6,-1,1,-2,-3,-1,-1,1
16:22:49.884242,-2,0,0,-1,-1,-1,2,-2
16:22:49.898232,-1,-2,-1,0,-2,-1,-1,0
16:22:49.899231,-2,1,-3,0,2,1,1,-2
16:22:49.914223,2,2,1,2,1,1,-2,0
16:22:49.921220,2,2,-1,0,-2,0,-3,1
16:22:49.936211,1,2,-2,1,-3,-4,-3,0
16:22:49.943206,-1,0,1,-4,-1,0,1,2
16:22:49.958196,-3,-2,-6,1,-3,1,0,-1
16:22:49.959197,3,2,2,1,2,-5,1,1
16:22:49.974197,-1,-3,-4,-2,0,-1,-1,-1
16:22:49.981184,1,1,1,0,-4,5,3,-1
16:22:49.996174,-4,-2,-5,-3,-1,-1,-1,-2
16:22:50.004166,3,2,0,0,1,1,2,1
16:22:50.019158,-1,-1,-2,-2,-6,-1,-4,-1
16:22:50.019158,2,-1,-2,-2,-1,-1,-1,0
16:22:50.034151,0,-1,-1,-1,-4,-3,-2,-2
16:22:50.041147,-1,-2,-1,-2,-2,-2,0,-5
16:22:50.056138,0,2,1,-4,2,-1,-1,-3
16:22:50.063135,-1,0,-1,1,0,0,-4,0
16:22:50.079120,-2,-1,0,-2,-2,0,1,-1
16:22:50.079120,-1,2,0,1,0,-2,0,0
16:22:50.101110,0,2,-1,1,0,-1,-2,2
16:22:50.102106,0,-1,-3,-1,-1,-1,-3,-2
16:22:50.116100,-1,-1,-2,0,-6,-1,0,-2
16:22:50.131091,2,0,-1,1,4,2,-3,-1
16:22:50.138088,2,-1,0,0,0,-1,-1,2
16:22:50.139086,2,-2,-2,0,-1,0,-4,0
16:22:50.154076,-1,-2,0,0,0,3,0,0
16:22:50.161072,1,-4,2,-2,-2,-2,-2,-3
16:22:50.176064,-3,-3,1,-1,0,-3,-3,0
16:22:50.184056,-4,-1,-2,-1,0,-2,1,-3
16:22:50.199047,0,0,-1,-2,-1,0,1,3
16:22:50.199047,1,2,1,-1,3,-1,-2,-1
16:22:50.221033,-1,-1,-1,-3,-3,-3,0,1
16:22:50.222032,1,0,-2,1,0,-2,-1,2
16:22:50.236027,-2,0,-1,-4,-2,-4,-5,-3
16:22:50.244021,-2,-2,-2,-2,0,1,3,0
16:22:50.259010,0,-3,-3,0,-1,-2,-3,-1
16:22:50.259010,0,2,-2,0,1,-2,1,2
16:22:50.274000,0,-3,0,-2,-1,0,0,-1
16:22:50.280996,-1,-1,0,-4,-3,1,-2,-3
16:22:50.295990,-1,-1,-1,-3,-2,0,1,0
16:22:50.303982,-3,-1,-3,-2,-1,-1,-1,-3
16:22:50.318972,1,0,0,-1,-1,-1,0,0
16:22:50.318972,1,0,-2,0,-1,-3,-2,0
16:22:50.333964,-3,-2,-3,-5,-10,-6,-5,-3
16:22:50.340960,-2,0,-1,-3,2,0,-4,-1
16:22:50.363946,0,-3,-3,-5,0,-1,-3,-1
16:22:50.363946,0,-2,1,2,-1,-3,-6,1
16:22:50.378936,1,-5,-1,-1,0,0,-1,-5
16:22:50.378936,1,-3,-2,-3,-5,1,-1,1
16:22:50.408919,1,-1,-1,-1,-2,0,-4,-5
16:22:50.408919,1,0,-2,-5,-2,0,-2,0
16:22:50.415913,1,0,-1,-3,-1,-1,-1,-3
16:22:50.423911,2,1,2,-1,1,-4,2,0
16:22:50.438903,-2,-2,0,-1,-1,0,1,1
16:22:50.438903,0,1,2,-3,0,1,-1,3
16:22:50.453893,-1,0,0,-1,-2,-3,0,-1
16:22:50.468883,-2,-1,0,-2,-4,-4,-2,0
16:22:50.475876,-3,-3,0,-2,-3,-3,0,0
16:22:50.483875,-1,1,0,-3,-2,0,-1,1
16:22:50.498865,2,0,-1,-2,-1,-5,0,-1
16:22:50.505859,-2,3,0,2,-3,-1,0,-1
16:22:50.520850,-2,-6,-3,-2,-3,1,-3,-4
16:22:50.521850,-1,0,3,4,1,-4,-1,-3
16:22:50.536842,-2,-1,0,-3,-1,-1,1,0
16:22:50.543838,2,-1,-3,0,-3,-2,-2,-1
16:22:50.558828,-3,0,-4,-5,-3,-1,-3,0
16:22:50.566820,-3,-3,-2,1,-5,0,1,0
16:22:50.580813,-1,-4,-3,-1,-2,1,-2,-2
16:22:50.581811,0,1,-2,-1,4,6,0,3
16:22:50.596802,0,-1,0,-1,-1,-1,-1,1
16:22:50.603798,-3,-2,-5,-4,-8,-5,1,-2
16:22:50.618791,-3,-1,-1,0,1,1,-3,-1
16:22:50.625784,-3,1,-5,-4,-1,-1,-3,-2
16:22:50.640775,-1,0,-3,-1,-2,0,-3,-6
16:22:50.641777,-5,-1,0,-1,-2,-2,-1,3
16:22:50.655766,-2,0,-1,-1,-2,-5,-1,0
16:22:50.663764,-2,-1,0,0,0,-5,-3,2
16:22:50.678751,-1,-3,-1,-2,-7,-5,-4,-5
16:22:50.686749,3,1,0,-1,1,4,2,4
16:22:50.701739,-2,-4,-2,-1,-2,-2,0,0
16:22:50.701739,-1,0,-4,-1,0,1,0,3
16:22:50.716728,3,0,-2,-2,0,1,0,-2
16:22:50.723727,-3,-1,0,-1,0,-2,-2,-2
16:22:50.746711,-1,-2,-2,-1,-2,-1,2,-2
16:22:50.746711,-3,-4,-1,1,-4,0,0,-1
16:22:50.760701,-1,-1,-2,-2,-3,0,-1,-2
16:22:50.761701,-1,1,-2,-1,-2,2,0,3
16:22:50.783690,-2,0,-1,0,-1,2,1,-1
16:22:50.784689,-1,2,0,-1,4,1,0,2
16:22:50.798679,0,-3,-3,-3,0,0,-3,-1
16:22:50.806672,1,1,1,-6,-3,0,-1,-3
16:22:50.820665,-1,-2,-1,1,-5,1,-2,1
16:22:50.821665,2,1,-1,-2,0,1,-2,1
16:22:50.836656,0,-3,2,1,3,1,3,2
16:22:50.843653,-2,-1,1,-1,-4,0,2,2
16:22:50.858643,1,1,0,0,-1,0,-2,0
16:22:50.866635,-2,-2,-1,-5,-4,-4,0,-1
16:22:50.888625,-1,0,-1,0,-4,-4,-1,-1
16:22:50.889623,-3,-2,-2,0,-2,-2,-1,-4
16:22:50.895620,-4,-2,-6,-8,-7,1,-3,-4
16:22:50.903616,-1,-1,0,0,-1,-3,1,0
16:22:50.918607,-1,0,0,1,0,0,0,2
16:22:50.933597,-3,-2,-3,-1,-3,2,0,1
16:22:50.940592,1,2,0,1,1,-5,-1,1
16:22:50.941589,0,-2,0,0,0,2,1,-1
16:22:50.956582,0,0,-1,0,3,4,-2,-1
16:22:50.963576,-1,1,-2,-4,-4,-1,-3,2
16:22:50.978570,1,4,-1,2,5,1,2,5
16:22:50.986562,0,-3,-3,-4,-6,-2,0,0
16:22:51.001553,-2,0,-1,1,1,0,-5,-2
16:22:51.001553,0,-2,-2,-5,-2,-1,-1,-1
16:22:51.023542,-2,-2,-2,-3,-1,-3,-1,-3
16:22:51.024541,0,-2,-1,-2,0,-4,-1,-2
16:22:51.038533,1,-2,0,-1,-6,-1,2,1
16:22:51.046528,-4,-4,-3,-1,3,1,0,-2
16:22:51.061516,1,2,-1,0,-3,0,1,3
16:22:51.061516,-4,0,1,2,4,3,1,1
16:22:51.076511,-1,0,-2,-3,3,4,1,-1
16:22:51.083505,-2,-1,2,0,-1,-4,0,1
16:22:51.098493,2,-1,0,-4,-5,-3,0,-3
16:22:51.106488,-1,-2,0,-1,-3,1,0,0
16:22:51.121479,-5,-3,-1,-1,-3,-2,-2,-4
16:22:51.121479,-1,-2,0,-1,0,-1,2,6
16:22:51.143468,-2,-3,-4,-3,2,0,1,-2
16:22:51.144467,-1,-1,0,1,-1,0,-3,0
16:22:51.159458,-1,-1,-2,-2,-1,0,-1,-2
16:22:51.166454,-1,-4,-2,2,5,1,-1,2
16:22:51.181445,-1,3,-2,-3,-4,0,-1,-3
16:22:51.181445,0,1,2,0,8,6,3,2
16:22:51.196436,-1,-1,-5,0,-5,-1,-3,-3
16:22:51.204430,-1,-2,-1,-2,-3,-1,0,3
16:22:51.218419,-1,-2,0,-1,-1,1,-1,-1
16:22:51.226417,-3,-1,-1,0,1,0,0,2
16:22:51.241408,-1,0,-2,0,2,0,0,-2
16:22:51.241408,-1,1,-1,0,0,-3,-2,3
16:22:51.256399,-1,0,-4,-2,-4,-1,-2,-2
16:22:51.263391,-1,-1,1,1,-1,0,-1,0
16:22:51.279385,2,1,-1,1,-2,-2,0,-2
16:22:51.286377,0,0,1,-1,0,0,3,2
16:22:51.301371,-1,-1,1,0,-9,0,-1,0
16:22:51.302368,-1,-2,-1,-2,2,-1,-1,1
16:22:51.316361,-2,0,0,0,0,-3,-2,-1
16:22:51.331353,-1,-3,0,-2,0,4,0,-3
16:22:51.338348,0,1,-2,-2,-1,-3,-1,-5
16:22:51.346343,-1,-3,2,1,-1,2,-1,-1
16:22:51.361334,0,0,-1,-3,-2,-3,-1,-1
16:22:51.361334,1,-3,0,-2,0,-3,2,2
16:22:51.376325,2,-3,-1,2,-1,0,2,2
16:22:51.384321,-5,0,-1,2,2,0,2,3
16:22:51.406303,2,1,0,-1,-4,0,0,-4
16:22:51.406303,0,-1,0,-1,0,1,1,1
16:22:51.421297,2,-1,2,-3,-2,-3,-3,-1
16:22:51.428293,2,0,-4,-2,-3,-1,2,-2
16:22:51.443281,1,2,0,-1,-7,-4,0,-1
16:22:51.444281,-1,-3,-1,-4,3,-1,2,0
16:22:51.458271,0,1,-2,-1,-5,-3,-1,-3
16:22:51.466269,2,-3,0,-2,-2,2,-1,0
16:22:51.481261,1,1,-3,0,-3,1,2,-3
16:22:51.496251,-2,-1,-1,-3,-2,-1,2,0
16:22:51.504246,1,0,-2,0,0,-2,-5,0
16:22:51.504246,-2,-2,-2,-2,-2,1,2,5
16:22:51.519235,0,-4,-3,-2,3,-2,-1,-2
16:22:51.526233,1,2,-3,0,-3,-3,-1,1
16:22:51.549215,0,0,-1,-1,-1,-6,-3,-1
16:22:51.549215,1,-2,-2,-1,1,5,3,2
16:22:51.564209,-3,0,-1,0,1,3,1,-1
16:22:51.564209,-2,-2,-3,-1,-1,-4,-3,-2
16:22:51.579200,0,-3,-3,1,-7,-1,0,-1
16:22:51.586196,0,2,-1,-3,2,1,2,1
16:22:51.609178,2,0,0,-4,1,0,-1,-3
16:22:51.609178,1,0,-2,0,0,-1,2,-1
16:22:51.623173,-1,0,0,-3,-4,-1,0,1
16:22:51.624172,-1,-1,1,2,5,3,0,4
16:22:51.639160,-3,-1,-4,-3,0,0,-4,3
16:22:51.646159,0,2,0,3,0,-2,-2,-1
16:22:51.661150,0,2,-1,-1,-10,-2,-2,-1
16:22:51.669145,2,0,-1,1,2,1,-2,2
16:22:51.684133,-2,-4,1,-5,-3,-2,0,-2
16:22:51.684133,-1,-3,-3,-1,-5,-1,-1,1
16:22:51.699124,-1,-1,-1,0,-1,0,-2,-1
16:22:51.706122,0,-3,0,-2,-3,-1,0,0
16:22:51.721113,0,0,-1,1,1,2,-1,-3
16:22:51.729105,-1,1,-3,0,2,1,-1,2
16:22:51.744097,0,-4,-2,-3,-2,-2,-3,-4
16:22:51.744097,0,-1,-2,-1,-4,0,-1,1
16:22:51.759089,1,-1,-1,-1,1,0,-2,3
16:22:51.766081,1,1,-3,3,0,0,0,3
16:22:51.789070,-1,-1,-2,1,-2,0,-2,-2
16:22:51.789070,-2,-2,-2,-2,-1,4,2,2
16:22:51.804060,-1,-1,-1,1,0,-2,-1,-2
16:22:51.804060,-3,-1,0,-3,-4,-5,-2,-2
16:22:51.819053,1,-1,0,-3,1,3,0,0
16:22:51.826047,-1,-3,-6,-3,-3,2,-1,0
16:22:51.841039,0,-2,-1,-3,-4,0,-3,-2
16:22:51.856029,1,0,0,-3,-1,2,-2,2
16:22:51.871020,-2,2,-2,-2,3,0,0,-1
16:22:51.872016,-1,-1,0,0,-1,-2,0,-1
16:22:51.879015,-1,-1,-4,-2,4,-1,-2,-1
16:22:51.886008,-2,0,-3,-1,1,2,-2,2
16:22:51.901002,-1,-1,-1,-4,-4,-2,-2,-3
16:22:51.908994,3,-1,0,-3,1,0,1,2
16:22:51.923985,-1,3,0,0,-2,-3,1,-2
16:22:51.923985,-5,-1,-3,0,-2,0,0,0
16:22:51.938978,-1,3,-2,-1,-4,-4,0,0
16:22:51.945971,0,0,-1,0,0,-3,1,2
16:22:51.960962,2,0,-1,-3,0,1,1,-2
16:22:51.968960,-1,0,1,-2,0,-1,-1,-1
16:22:51.983951,-2,-3,0,-5,-3,-3,-3,-3
16:22:51.984947,0,-1,-1,-4,-6,0,-2,0
16:22:51.998939,-2,0,2,2,9,1,-1,2
16:22:52.005935,-1,-1,-1,0,-2,-3,-1,2
16:22:52.021927,0,0,0,-1,-2,-5,-1,-1
16:22:52.028920,0,0,-3,0,1,-1,0,1
16:22:52.043914,-3,1,-1,-1,-1,-1,-2,-2
16:22:52.043914,1,2,2,2,2,2,1,0
