timestamp,emg1,emg2,emg3,emg4,emg5,emg6,emg7,emg8
16:23:12.288451,0,-2,-1,0,-9,0,2,2
16:23:12.294445,0,-2,2,0,3,-1,0,3
16:23:12.309436,-1,-3,-1,3,-3,0,-3,1
16:23:12.319431,-3,-1,1,-3,-8,-2,-2,-1
16:23:12.331423,-3,-1,0,-1,-3,-1,1,0
16:23:12.338417,1,-2,-1,-5,-2,-2,-4,1
16:23:12.339418,0,0,0,2,-6,0,0,3
16:23:12.353457,-1,-1,-3,-3,-2,-4,-4,-4
16:23:12.361404,-5,-2,0,-3,-3,-3,0,1
16:23:12.376395,0,1,0,0,-1,0,-1,-2
16:23:12.383390,-2,-1,1,1,2,0,0,0
16:23:12.399382,-1,-1,-1,-2,2,1,-3,0
16:23:12.400385,0,0,-2,0,-3,2,1,-2
16:23:12.414371,-1,0,1,-1,3,1,-1,-1
16:23:12.422367,0,0,1,-4,-3,1,1,1
16:23:12.436360,0,-1,0,-3,-5,-3,0,0
16:23:12.444355,2,1,2,0,-6,-5,1,1
16:23:12.459346,0,-1,0,3,5,3,1,-1
16:23:12.459346,-1,1,1,3,-1,0,1,1
16:23:12.474338,-1,-4,-2,1,-7,-1,-1,-1
16:23:12.481333,1,0,-1,-3,1,-1,3,1
16:23:12.496324,0,-1,1,-1,-1,0,0,2
16:23:12.504318,-3,-4,0,-1,-4,0,-2,-1
16:23:12.519308,-2,-3,2,1,-1,1,1,-3
16:23:12.519308,-2,-3,2,-1,3,1,-2,-2
16:23:12.533300,3,1,-1,-3,-5,-4,1,2
16:23:12.541294,-3,-2,-2,-4,1,-2,1,2
16:23:12.571275,-1,-3,-2,-1,-1,-3,-1,-1
16:23:12.571275,-1,0,-3,-1,-2,-1,4,0
16:23:12.578318,0,-3,0,-2,-7,-3,-3,-2
16:23:12.586266,1,-1,0,1,8,6,4,2
16:23:12.594260,0,-1,-1,-4,5,0,-1,0
16:23:12.601256,0,-3,0,3,-2,-3,-1,-1
16:23:12.616246,0,-2,-2,-4,1,-2,0,0
16:23:12.623242,-1,0,0,0,0,2,-2,-1
16:23:12.641231,1,1,0,1,7,2,0,-1
16:23:12.642230,-3,-2,-2,1,-1,-1,3,0
16:23:12.653224,-1,1,0,1,6,-1,0,2
16:23:12.661218,1,-1,-3,0,1,-1,0,1
16:23:12.676210,-2,-3,1,1,-1,1,1,1
16:23:12.683207,-1,2,-4,-1,3,5,-3,2
16:23:12.699196,1,-3,-2,0,-2,3,-1,-2
16:23:12.699196,0,-1,-2,0,-1,-1,-1,2
16:23:12.713187,-4,0,-1,1,-3,0,0,-1
16:23:12.721182,2,0,2,-1,-2,-2,0,1
16:23:12.736173,-4,-2,1,-2,-3,-1,1,-2
16:23:12.743169,0,0,-1,1,-1,0,0,2
16:23:12.758160,-1,-1,1,3,0,-1,1,0
16:23:12.759158,-2,-1,1,-1,2,1,-1,4
16:23:12.773151,1,-1,1,-2,-1,1,1,0
16:23:12.781145,-2,0,-1,-1,-2,-1,0,1
16:23:12.796135,2,-1,-1,-1,-6,-6,2,3
16:23:12.804130,-2,1,-1,-1,3,0,1,1
16:23:12.818125,-1,-2,0,0,0,1,-4,0
16:23:12.819122,0,1,0,0,-1,1,0,0
16:23:12.834114,-1,0,0,-2,1,1,0,-1
16:23:12.841108,-3,2,-2,-3,-2,2,-1,2
16:23:12.856099,2,-2,0,-1,1,-1,0,0
16:23:12.864095,-2,-1,-1,0,3,0,3,-1
16:23:12.878094,-3,-1,-4,0,-3,-4,-2,2
16:23:12.879084,-4,-4,1,-3,-1,0,1,1
16:23:12.894077,-1,-1,1,1,5,1,1,1
16:23:12.901071,-2,0,-1,-3,-5,-2,-4,1
16:23:12.917063,0,-4,-3,-3,2,-2,-3,-4
16:23:12.924057,2,-1,0,-4,-1,-2,3,-1
16:23:12.946044,3,0,2,1,0,-5,-4,1
16:23:12.947059,0,0,2,-1,-3,-5,-1,2
16:23:12.954040,1,-2,-2,2,-1,-2,-2,-1
16:23:12.961034,0,0,0,-1,-1,-2,-1,2
16:23:12.984020,2,1,-2,1,-6,0,-1,-3
16:23:12.984020,-3,0,0,-2,-1,0,0,-1
16:23:12.998011,-4,0,-2,0,-1,2,-1,-1
16:23:13.000010,0,2,-1,6,7,3,0,5
16:23:13.014001,0,-1,0,3,5,1,-2,1
16:23:13.020997,2,-1,-1,-1,-3,-1,-2,1
16:23:13.035988,-2,-2,-3,-4,-3,-2,-1,2
16:23:13.043984,0,0,2,-2,-6,-1,-1,0
16:23:13.058973,-3,-1,-5,0,0,1,-2,-1
16:23:13.058973,-1,1,-1,-2,-1,0,1,0
16:23:13.080961,0,1,-5,0,-7,-3,-4,-2
16:23:13.081961,0,-1,-1,9,-1,0,-1,-3
16:23:13.095958,-3,-4,-4,-4,-3,-6,-1,-2
16:23:13.103950,0,-3,0,0,0,0,-3,0
16:23:13.118938,-1,0,-1,-2,-7,0,-4,2
16:23:13.119941,3,-3,0,-1,-2,0,-2,0
16:23:13.133929,-1,-2,0,-2,0,0,2,0
16:23:13.141924,-2,1,-4,-5,-5,0,-1,-2
16:23:13.163913,0,-5,-4,-4,0,-1,-4,0
16:23:13.163913,-5,1,2,2,1,0,0,0
16:23:13.186899,-3,-3,-2,-5,-7,-2,-1,-1
16:23:13.186899,0,-1,-2,1,5,2,-3,-1
16:23:13.193894,0,-2,-2,-1,-2,0,-2,0
16:23:13.201887,-1,2,-1,-2,-11,-2,-1,-1
16:23:13.217877,-2,-2,0,-1,4,1,0,0
16:23:13.223876,-1,0,1,1,0,-1,1,-1
16:23:13.238867,1,0,0,2,-2,0,2,0
16:23:13.253858,1,-2,-1,-1,2,-3,0,-1
16:23:13.254854,2,0,0,-1,-3,2,-1,0
16:23:13.260853,0,0,4,-2,-3,0,1,1
16:23:13.276844,-1,-2,-3,0,-4,3,-2,2
16:23:13.283837,-4,-4,0,-2,-6,-1,-1,-2
16:23:13.298828,0,-1,-1,3,3,2,2,0
16:23:13.306823,-3,-2,-2,1,-4,1,1,0
16:23:13.321816,1,1,-5,-2,-6,0,2,-1
16:23:13.321816,-2,0,-2,-1,3,1,0,1
16:23:13.336807,0,3,3,-2,-4,-3,-1,-4
16:23:13.344802,-2,1,-1,-1,-5,0,-1,-1
16:23:13.358793,1,-3,0,3,1,1,0,2
16:23:13.366785,-1,-4,-2,-13,-4,-1,-1,-1
16:23:13.388775,0,-2,1,1,-9,-3,-3,-1
16:23:13.389774,-1,1,1,-3,1,1,0,0
16:23:13.396767,-2,-2,1,0,-1,1,-3,0
16:23:13.403762,-2,-1,-1,0,-1,1,0,2
16:23:13.418753,0,1,3,2,0,-2,-3,2
16:23:13.426748,0,-5,-3,-2,4,0,0,-3
16:23:13.441741,-3,1,0,0,-4,-3,0,-3
16:23:13.441741,-2,-2,0,2,-2,-2,-2,-1
16:23:13.456729,1,-2,-3,-2,-6,-1,1,-1
16:23:13.471723,1,1,2,2,9,2,4,3
16:23:13.478716,-1,-1,-1,-1,-5,-1,-1,-2
16:23:13.486714,-3,0,0,-4,3,4,0,1
16:23:13.501702,0,-1,-1,-2,-1,-2,1,-1
16:23:13.501702,-3,-1,-1,0,0,0,0,0
16:23:13.516693,0,1,-3,-3,-1,1,0,0
16:23:13.523689,-2,0,-3,-3,-1,-1,1,2
16:23:13.538681,0,-4,-2,0,-1,1,-1,1
16:23:13.554670,-2,1,-4,-9,-6,1,1,-2
16:23:13.561665,-3,-3,-3,-1,1,-2,-2,-3
16:23:13.561665,-3,-2,-2,-2,-1,-3,-4,-3
16:23:13.576656,0,1,2,-1,-3,-1,-1,1
16:23:13.591650,-2,-1,2,-1,4,-1,1,2
16:23:13.598643,0,0,-1,-3,-3,-3,1,-1
16:23:13.613633,-4,-3,0,0,-1,0,0,-2
16:23:13.621631,0,0,0,-1,-2,-1,1,1
16:23:13.622631,1,-3,-1,0,2,2,3,-2
16:23:13.636622,0,0,2,-3,-1,0,-4,-1
16:23:13.643615,-3,-4,-5,-3,-2,2,-2,-1
16:23:13.658605,-1,-1,0,-1,0,-1,-1,-3
16:23:13.666600,2,1,3,-1,0,1,2,1
16:23:13.681593,-5,-5,-4,-4,-10,-7,-3,-5
16:23:13.681593,0,0,-2,-1,7,1,-3,-1
16:23:13.696585,0,-1,-1,0,3,-2,1,-1
16:23:13.704580,2,1,0,-2,-4,-2,0,1
16:23:13.719568,-3,1,-1,2,3,1,-1,2
16:23:13.726566,-2,-3,1,-1,0,-1,1,-2
16:23:13.741559,-1,-1,-2,-5,-2,-3,-3,-2
16:23:13.742555,-1,-3,0,4,1,-1,1,1
16:23:13.756548,-2,-1,-1,0,-5,-3,-3,-2
16:23:13.763543,-1,1,1,1,-1,1,0,-1
16:23:13.779532,0,-2,1,-6,2,-1,1,-1
16:23:13.786529,3,-1,3,1,-5,-5,2,1
16:23:13.801521,-2,1,0,0,11,2,2,0
16:23:13.802519,0,-1,-5,-1,-10,0,0,3
16:23:13.816508,-4,-2,-2,-2,-1,3,-2,-2
16:23:13.823504,-2,1,2,-1,-4,-1,0,0
16:23:13.839497,-2,0,-2,-4,-4,-2,-1,-3
16:23:13.846493,-1,-4,0,-1,2,3,1,3
16:23:13.861484,-2,-1,0,-5,-3,-5,-1,1
16:23:13.862481,-2,-2,-2,1,-4,-3,1,2
16:23:13.876474,-2,-2,0,-4,0,2,0,-3
16:23:13.884466,-2,0,0,-4,-2,0,-3,0
16:23:13.899459,0,-1,0,-4,-4,-5,-4,0
16:23:13.906456,1,-3,0,3,6,0,1,2
16:23:13.928440,-1,0,-1,-2,2,0,2,-2
16:23:13.929439,-5,-2,-1,0,-2,-2,1,-4
16:23:13.936437,0,-2,0,1,1,-4,-1,-3
16:23:13.944432,-4,-1,-2,-3,-4,0,-1,0
16:23:13.966416,0,2,2,-1,-5,-4,1,0
16:23:13.967417,-3,-2,-1,-3,1,0,0,1
16:23:13.981409,-1,-4,0,0,0,0,-1,-1
16:23:13.982407,-3,-3,0,0,3,-1,0,-3
16:23:14.004394,1,-2,0,-1,-2,2,-1,-2
16:23:14.004394,0,-2,0,0,10,6,2,1
16:23:14.019388,-1,-3,-1,-3,-5,-2,0,0
16:23:14.034377,-2,0,1,-1,3,-1,0,2
16:23:14.041373,1,3,-1,-1,2,-1,-2,-1
16:23:14.042372,2,-1,1,6,-6,2,2,3
16:23:14.056363,1,-3,-2,-7,0,-1,2,1
16:23:14.064355,0,-1,0,-1,-2,-2,2,-1
16:23:14.086345,2,1,1,4,2,-1,0,-2
16:23:14.087344,2,-1,0,2,3,2,3,1
16:23:14.101336,-3,-1,-3,-2,-9,-3,-2,0
16:23:14.102335,0,-2,-3,-3,1,1,0,-1
16:23:14.116323,-1,0,-1,-3,-1,-2,-1,0
16:23:14.124325,-1,1,-3,-3,-1,3,1,0
16:23:14.139312,1,-1,1,0,-4,-1,-1,1
16:23:14.146308,1,0,-2,2,1,-1,1,-2
16:23:14.161299,-3,0,-3,-3,5,-1,-2,-1
16:23:14.162295,-4,1,3,-2,0,1,3,0
16:23:14.184283,2,0,-3,0,-3,-2,-2,-1
16:23:14.184283,-2,0,-1,-1,2,-1,3,1
16:23:14.199275,0,1,-1,-4,-2,0,4,0
16:23:14.206272,-3,-1,-2,-2,6,1,-2,1
16:23:14.221258,-1,1,0,-1,0,-2,0,0
16:23:14.229257,-4,-3,-5,-4,-1,-5,-2,-2
16:23:14.245244,-3,-2,0,-4,-7,-5,-1,-3
16:23:14.247243,0,1,0,1,4,3,1,0
16:23:14.259236,2,2,0,7,2,0,0,-3
16:23:14.273232,1,1,1,1,3,3,2,2
16:23:14.288221,-5,-1,0,-2,-5,-3,2,1
16:23:14.289217,0,1,-1,-2,-7,-2,0,4
16:23:14.304207,-3,-3,-1,-4,0,-3,-3,-5
16:23:14.304207,0,-2,-2,-6,-4,-2,0,-1
16:23:14.319200,-1,-1,0,2,0,0,0,-1
16:23:14.334189,-2,-2,0,1,1,4,1,-2
16:23:14.341186,-1,-2,1,-2,2,-4,-4,-1
16:23:14.348181,-2,3,-4,-3,1,2,-3,1
16:23:14.363174,-1,-2,-1,3,1,0,0,-1
16:23:14.364170,0,-2,0,-1,-5,1,1,-3
16:23:14.379162,1,1,1,-2,0,2,1,3
16:23:14.386158,-3,-1,-4,-4,-3,0,3,0
16:23:14.401149,1,1,-2,-4,-2,-1,0,1
16:23:14.409143,0,-4,-1,0,6,1,0,0
16:23:14.423135,5,2,2,0,2,-2,-1,-1
16:23:14.424133,-7,3,1,-2,-4,-1,-5,-6
16:23:14.439124,3,-1,-3,-4,-8,-5,-5,-5
16:23:14.446120,-5,6,3,5,4,13,2,-4
16:23:14.461113,-8,-8,-12,-10,-15,-15,-23,-14
16:23:14.469106,-1,0,-1,0,-2,0,2,1
16:23:14.483097,-2,-1,1,0,1,1,0,-1
16:23:14.484097,0,-3,-3,0,1,1,1,0
16:23:14.499088,1,-1,1,-2,-1,-1,-2,-5
16:23:14.506083,-3,-3,-1,-1,0,3,-2,-2
16:23:14.528070,-1,2,4,-2,5,9,0,2
16:23:14.529069,-4,-2,-3,-1,-5,-1,-1,-4
16:23:14.543060,-1,1,-1,-2,-1,-2,-1,-1
16:23:14.544062,2,1,-3,-2,-4,-3,-1,1
16:23:14.559051,2,-6,-1,-1,-5,-4,0,6
16:23:14.566047,-11,-5,-2,-2,-2,1,3,-7
16:23:14.581037,-1,-3,-3,0,0,-2,0,-4
16:23:14.589032,-12,-3,-4,-5,-3,-1,-5,-9
16:23:14.604023,-10,-1,0,0,-1,-6,-3,-5
16:23:14.604023,0,-4,-6,-6,-1,3,-2,-2
16:23:14.619013,-3,-1,2,6,-1,5,-1,-1
16:23:14.626009,1,-3,-2,-1,-2,-1,-2,-3
16:23:14.641000,2,0,1,-1,-1,2,-1,-2
16:23:14.655993,2,1,-1,-1,3,6,1,-2
16:23:14.662989,0,-3,-2,1,-3,1,-3,0
16:23:14.663990,-1,-3,-5,-8,-1,-5,0,-3
16:23:14.678976,-1,0,1,-1,-4,-2,2,-1
16:23:14.688970,-1,0,1,2,4,4,0,-1
16:23:14.700963,3,-2,0,-2,1,0,2,1
16:23:14.708960,-4,-3,0,1,-2,1,-2,-4
16:23:14.723949,-4,-2,-1,0,-5,-3,0,-4
16:23:14.723949,1,3,0,5,8,9,3,2
16:23:14.738940,1,0,-1,-3,-2,-1,-1,0
16:23:14.745935,-1,0,1,-3,-1,-1,2,2
16:23:14.760927,1,1,-1,3,3,3,0,-1
16:23:14.768921,-1,-1,-1,-1,-1,-1,0,0
16:23:14.783912,-3,-2,-3,1,1,-1,0,-2
16:23:14.783912,-2,-2,3,3,-4,-2,1,-3
16:23:14.798903,3,5,7,21,11,0,1,5
16:23:14.805898,-1,-3,-2,6,1,-1,0,-2
16:23:14.820905,2,4,10,2,-12,-4,-2,-2
16:23:14.828884,1,3,3,13,1,5,2,2
16:23:14.842876,-2,-4,-14,-24,-71,-16,-4,-4
16:23:14.843876,-3,2,0,2,23,1,-1,1
16:23:14.858866,0,5,9,15,-1,4,2,4
16:23:14.865862,-2,-2,16,29,-6,1,1,-1
16:23:14.888855,2,1,13,69,21,-4,-2,-1
16:23:14.888855,3,3,-9,-22,14,5,0,7
16:23:14.903841,-1,-6,-52,-13,-23,2,1,4
16:23:14.910835,-6,-7,7,22,35,3,-2,-3
16:23:14.918830,4,3,-10,-32,-44,-18,-1,3
16:23:14.925831,7,16,46,38,36,10,3,2
16:23:14.940815,3,-8,-12,-53,-6,1,1,3
16:23:14.948810,1,2,-14,-16,-21,6,1,2
16:23:14.963801,-1,6,19,37,60,15,2,3
16:23:14.965801,10,12,19,50,-9,-6,4,7
16:23:14.978793,5,0,-20,61,67,16,7,6
16:23:14.985788,-9,-8,1,-43,105,-5,-8,-5
16:23:15.000780,-4,-4,-13,56,127,1,0,-5
16:23:15.008775,1,11,40,87,127,42,6,6
16:23:15.023766,10,13,35,19,127,23,6,6
16:23:15.023766,-17,-34,-1,-9,-128,-86,-19,-9
16:23:15.038756,15,25,-11,-103,-128,-5,12,7
16:23:15.045750,2,-4,0,71,-128,-11,2,6
16:23:15.068737,-17,-7,29,64,127,84,-4,-12
16:23:15.068737,16,-7,-69,-128,-128,-69,4,15
16:23:15.083728,-30,-46,-41,-128,-128,-16,-17,-18
16:23:15.083728,-4,22,51,127,127,39,0,-6
16:23:15.098718,-4,-49,-128,-90,-128,-105,-8,5
16:23:15.105714,18,77,42,-68,-128,17,12,5
16:23:15.120706,-30,-82,-59,17,-128,-39,-28,-20
16:23:15.128701,15,53,100,127,-128,29,14,10
16:23:15.143694,-5,-25,4,68,127,-40,-10,-9
16:23:15.150687,-5,-55,-118,-64,69,-40,-2,11
16:23:15.165677,20,54,64,122,-52,3,12,9
16:23:15.166677,2,-19,-29,-54,-58,19,4,3
16:23:15.180673,13,28,-11,-114,75,1,2,5
16:23:15.195659,-8,-4,-29,114,63,-6,-8,-6
16:23:15.205652,-17,-50,-67,-54,-58,-35,-7,0
16:23:15.210649,12,27,5,-60,-30,3,2,6
16:23:15.225642,-7,-2,4,14,11,5,-5,-9
16:23:15.226640,-1,-6,-7,-10,-6,-11,-3,-2
16:23:15.240632,-1,-5,-4,-2,-5,-1,0,-4
16:23:15.248626,-4,-3,-3,1,-1,0,-1,-1
16:23:15.263616,-4,1,-4,-10,-26,-7,-7,-5
16:23:15.270614,2,9,29,89,37,20,5,1
16:23:15.285604,-15,-28,-34,-91,-51,-7,-10,-11
16:23:15.293598,30,52,-10,-128,-128,7,9,12
16:23:15.300594,-42,-43,-22,-56,-84,-56,-25,-23
16:23:15.308589,-45,-118,-120,-128,-1,-21,-12,-6
16:23:15.330576,5,29,45,-84,-11,39,5,-4
16:23:15.331575,-52,-102,-74,18,127,-10,-10,-9
16:23:15.346566,21,9,-39,-114,-111,53,10,15
16:23:15.347565,8,58,76,-128,-58,4,4,2
16:23:15.360557,81,127,19,-59,-9,8,14,33
16:23:15.368553,-37,-84,-39,-37,-128,-39,-10,-10
16:23:15.383542,-29,-87,-60,-128,-80,-11,-7,-2
16:23:15.390538,27,72,61,31,127,-8,-2,5
16:23:15.405529,-25,-66,-29,53,115,18,-1,-12
16:23:15.406529,-33,-77,-58,69,10,-54,-7,-10
16:23:15.421520,35,94,87,78,-52,15,0,7
16:23:15.428515,-3,-12,-23,-104,-120,35,4,2
16:23:15.443505,23,65,54,84,-6,-6,1,5
16:23:15.451501,-9,-12,-4,-55,-56,-20,-4,-4
16:23:15.466492,-54,-113,-91,-26,3,-2,-29,-27
16:23:15.466492,-14,-28,-17,-47,-24,-7,1,-3
16:23:15.481482,9,30,38,-27,17,5,3,1
16:23:15.488478,-9,-19,10,82,100,26,-1,-3
16:23:15.503469,-26,-45,-55,-38,-34,-7,-8,-10
16:23:15.511464,64,127,102,-37,118,34,21,25
16:23:15.525456,-17,-26,-34,-29,-32,-28,-10,-9
16:23:15.526455,17,33,32,5,-101,0,7,8
16:23:15.541446,-27,-51,-7,127,90,13,-8,-13
16:23:15.548441,-8,-8,-14,-35,-65,-9,-2,-4
16:23:15.563432,-12,-57,-34,117,87,51,11,2
16:23:15.571427,9,27,26,18,127,33,9,1
16:23:15.585418,-13,-17,-15,14,-23,-3,0,0
16:23:15.586418,14,22,7,-64,-38,-17,2,10
16:23:15.601409,9,14,4,-21,-70,7,3,5
16:23:15.608404,-2,4,3,-3,9,-6,-2,-6
16:23:15.623395,6,6,6,127,0,0,5,3
16:23:15.631390,13,29,27,30,127,19,6,4
16:23:15.645381,-5,-1,-11,-45,40,-10,-6,-6
16:23:15.646382,4,0,6,-66,-128,9,8,7
16:23:15.661371,-12,-48,-15,98,24,32,3,4
16:23:15.668367,15,44,39,-60,-72,-4,2,0
16:23:15.683359,5,18,21,127,49,20,5,0
16:23:15.691353,9,8,1,-72,8,4,0,4
16:23:15.706344,-16,-30,-33,-68,9,8,2,-2
16:23:15.706344,-10,-37,-16,105,127,79,11,6
16:23:15.721335,22,32,24,-9,27,0,6,8
16:23:15.728330,9,26,29,-16,-47,-13,-4,-1
16:23:15.743321,-7,-9,-10,35,83,-5,-9,-3
16:23:15.751316,15,21,9,38,21,-6,0,5
16:23:15.766308,-22,-45,-49,-12,0,6,-7,-6
16:23:15.766308,11,11,-14,-69,-17,27,7,4
16:23:15.781298,5,13,20,17,-33,1,2,1
16:23:15.788293,9,12,0,8,-16,-24,-1,3
16:23:15.804292,19,52,29,2,-39,20,5,2
16:23:15.811281,-16,-28,-40,-9,-103,23,-7,-8
16:23:15.826270,6,24,17,-63,-46,-8,-1,1
16:23:15.826270,-29,-63,-60,16,127,26,-3,-7
16:23:15.841262,8,8,3,41,-14,-9,2,1
16:23:15.849257,35,69,49,-40,-77,4,10,18
16:23:15.863249,1,-9,-24,-51,-11,5,-1,2
16:23:15.871243,-5,-19,-21,-28,-11,8,4,3
16:23:15.886233,-16,-25,-36,25,-32,-12,-10,-9
16:23:15.887235,5,14,23,-125,-10,-2,-2,5
16:23:15.901225,6,19,-1,127,-10,-3,4,4
16:23:15.908219,-1,11,-9,104,-9,27,2,-3
16:23:15.924210,6,5,10,-25,54,10,6,4
16:23:15.932205,10,9,23,120,127,7,3,2
16:23:15.947196,0,3,-40,-33,22,6,-2,1
16:23:15.949195,10,24,55,127,-64,4,8,4
16:23:15.961187,-4,-14,-24,-22,-108,-7,-4,-3
16:23:15.969184,-9,-13,-27,-78,-59,9,-3,-4
16:23:15.984174,2,9,20,62,127,22,5,3
16:23:15.991169,-25,-43,-60,-20,121,-8,-12,-8
16:23:16.006161,-12,-33,-62,-128,-19,-5,-3,-5
16:23:16.006161,22,35,19,127,127,3,7,6
16:23:16.028146,-12,-23,-37,-106,-59,-18,-5,-1
16:23:16.029146,19,36,38,19,127,5,7,10
16:23:16.044137,1,8,46,2,-41,8,-1,-3
16:23:16.051132,-11,-12,9,127,115,27,-3,-7
16:23:16.066126,6,16,7,-128,-16,12,5,4
16:23:16.067123,-9,-11,13,3,1,7,2,-4
16:23:16.081113,20,28,33,-111,-21,15,12,16
16:23:16.089109,-17,-18,1,-7,125,-12,-5,-9
16:23:16.104101,5,12,-29,-128,-34,2,0,3
16:23:16.111095,-7,-12,-10,-2,-5,11,0,-2
16:23:16.126086,-60,-128,32,127,127,68,0,-23
16:23:16.141077,22,31,4,-44,-21,-8,5,12
16:23:16.156067,9,11,-11,-128,-128,6,6,5
16:23:16.156067,-31,-57,-38,-19,39,-24,-15,-15
16:23:16.164063,21,25,47,127,53,9,10,9
16:23:16.172058,26,62,86,76,-123,11,9,7
16:23:16.186049,-23,-41,38,127,127,40,-5,-11
16:23:16.194044,18,41,31,-26,-128,-13,6,3
16:23:16.231022,1,11,10,127,115,45,2,-1
16:23:16.233020,-13,-54,-128,-128,-128,-57,-8,-3
16:23:16.251010,17,66,55,127,-58,4,0,-1
16:23:16.251010,-1,0,-71,-112,-128,-67,-11,-4
16:23:16.253009,25,39,-2,-6,54,-9,5,8
16:23:16.254008,-9,-16,-34,-33,-20,-6,0,1
16:23:16.267999,8,12,-10,-34,-68,-15,-3,0
16:23:16.268999,-17,-27,-37,-66,-38,4,-5,-8
16:23:16.284988,4,6,1,-23,-41,-2,1,0
16:23:16.290985,2,3,4,4,-5,-1,-1,0
16:23:16.306974,-1,-5,-15,-54,-37,-4,1,0
16:23:16.317968,2,3,4,20,30,8,4,5
16:23:16.328961,-1,-2,-1,-8,3,-5,4,0
16:23:16.335957,-3,2,2,-1,2,5,-6,-3
16:23:16.343952,-35,-15,-5,-3,3,14,20,16
16:23:16.350948,-47,-8,-14,-14,-21,-44,-28,-58
16:23:16.366938,3,-11,0,-3,-5,7,-56,84
16:23:16.373933,43,12,1,-6,-12,-13,82,-16
16:23:16.388925,-41,-11,0,3,12,28,-58,8
16:23:16.388925,46,-1,-7,-2,-3,-5,-14,17
16:23:16.403916,-102,-19,-1,-2,6,-25,-77,24
16:23:16.410911,89,7,-17,-16,-15,-4,127,96
16:23:16.427900,-51,16,28,32,34,-23,-29,-128
16:23:16.433896,127,-1,-17,-15,-35,-39,127,101
16:23:16.447887,-116,-36,-15,-5,-20,-13,127,-91
16:23:16.448887,91,34,24,20,27,52,-16,77
16:23:16.470874,-38,-11,-6,-5,-3,-19,-83,-40
16:23:16.471874,-13,10,6,9,9,14,79,-58
16:23:16.492861,-29,-22,-39,-69,-39,-71,-128,127
16:23:16.493859,11,34,92,127,88,35,43,-23
16:23:16.507852,-33,-62,-26,-45,-5,28,-103,95
16:23:16.508850,1,37,29,-60,3,-31,-26,-37
16:23:16.523842,-36,-54,-45,-24,-25,-37,-36,-39
16:23:16.530839,-7,6,-14,-37,-28,6,5,6
16:23:16.545830,5,42,5,78,105,-11,3,8
16:23:16.553823,53,13,-6,-62,4,43,30,54
16:23:16.568814,111,-51,18,-20,127,11,17,85
16:23:16.568814,-93,73,122,127,20,-23,-2,-29
16:23:16.583805,-123,-49,-83,-26,-7,-10,-32,-5
16:23:16.590802,17,34,58,127,29,-4,-4,-32
16:23:16.605793,-16,-10,4,93,-74,-4,-13,-17
16:23:16.613786,26,24,3,36,-11,15,3,-28
16:23:16.628777,127,2,4,14,30,-15,-19,81
16:23:16.628777,-16,3,3,-69,2,27,25,-4
16:23:16.643768,10,3,5,16,46,37,-1,-23
16:23:16.650766,-6,0,-3,-15,0,-22,-18,-23
16:23:16.666754,-2,5,-19,29,7,3,2,-5
16:23:16.680744,-20,-15,13,8,-74,-27,-9,-14
16:23:16.688739,-2,5,1,-30,18,9,6,-1
16:23:16.688739,-7,6,2,45,25,0,-1,4
16:23:16.703730,-7,-6,8,80,-5,13,28,19
16:23:16.710726,-25,0,-16,-17,-16,20,-5,-21
16:23:16.735711,-12,0,6,47,4,-23,-3,-4
16:23:16.737709,1,3,34,-12,-88,1,2,1
16:23:16.748702,-7,-3,0,29,49,0,-3,0
16:23:16.749702,-1,1,6,-8,6,-1,3,1
16:23:16.778685,4,4,3,26,25,12,5,8
16:23:16.778685,11,-7,-11,-24,-30,-3,-2,-17
16:23:16.786680,11,0,10,10,12,-10,-19,1
16:23:16.793676,13,-3,3,-8,-10,1,3,-9
16:23:16.808667,2,11,8,32,-2,4,0,3
16:23:16.808667,3,3,1,28,75,6,-4,0
16:23:16.830653,-3,-3,-7,-83,-30,-6,-4,-1
16:23:16.833651,0,0,-16,5,31,3,2,-1
16:23:16.845644,-3,-2,0,-40,-20,-10,-6,-7
16:23:16.861633,27,-2,-2,3,21,2,-2,3
16:23:16.868630,1,4,3,3,-5,3,7,11
16:23:16.869628,-4,-3,-1,4,-5,-5,-1,-6
16:23:16.883620,-7,-5,-4,-4,-2,-2,4,-1
16:23:16.891615,-1,1,-4,1,3,9,27,6
16:23:16.906607,14,1,-2,2,8,8,-7,13
16:23:16.913607,-4,-4,-1,-6,-9,-3,1,-5
16:23:16.928593,-3,-1,-3,-4,0,1,-1,-6
16:23:16.928593,1,0,-1,18,15,2,3,-2
16:23:16.951582,-10,-2,0,-5,-5,-3,-2,1
16:23:16.952578,-5,2,0,-28,-56,-1,-1,-1
16:23:16.966569,-4,-5,-3,13,44,-3,1,-2
16:23:16.973566,5,0,0,-2,13,11,8,10
16:23:16.996554,-5,-4,-4,-1,-4,-2,-5,-6
16:23:16.996554,-5,-4,-3,0,-5,-5,-1,-5
16:23:17.011544,0,0,-2,-3,-3,-2,-1,0
16:23:17.011544,1,-1,-1,-3,-2,1,1,2
16:23:17.026535,1,-2,0,-2,0,-3,-2,-1
16:23:17.034527,-4,-2,0,-10,2,1,-3,-5
16:23:17.049519,2,4,-1,2,0,-8,-6,0
16:23:17.056516,1,-1,3,-6,4,1,2,0
16:23:17.071504,0,-1,-3,24,9,-5,1,0
16:23:17.072503,-3,-2,-2,5,12,0,-1,-3
16:23:17.093491,0,-2,-4,-22,2,-3,0,-1
16:23:17.094490,-1,-2,-2,0,-29,-6,-2,-1
16:23:17.108483,-3,-3,-2,-8,42,2,-2,-2
16:23:17.116477,-4,-4,2,-13,19,8,1,-2
16:23:17.138463,-2,-3,-4,-14,-21,-7,-3,-3
16:23:17.139461,-1,0,1,3,1,-2,0,0
16:23:17.146458,-3,3,0,-1,2,2,0,-3
16:23:17.153453,-3,-3,-1,0,3,-2,-2,0
16:23:17.168443,1,-2,-5,1,10,5,-2,-2
16:23:17.176440,-3,0,3,9,8,-2,-1,-3
16:23:17.191430,0,0,-2,-15,-1,4,2,0
16:23:17.198426,0,0,-1,-10,12,2,1,3
16:23:17.206421,2,3,2,-29,-10,-7,-1,-2
16:23:17.213417,2,1,-2,-1,5,-1,1,1
16:23:17.228407,1,-2,-3,-3,-2,0,-1,0
16:23:17.236402,-1,1,-2,-1,0,0,2,-3
16:23:17.251394,-3,-1,-1,-1,6,2,-4,-1
16:23:17.251394,0,1,-1,-1,-5,-1,-3,-2
16:23:17.273379,-3,-2,-1,-1,0,0,-3,-1
16:23:17.274380,-1,-1,0,1,-2,-3,-2,-2
16:23:17.288385,-1,0,-2,-2,-2,-2,-1,-1
16:23:17.296366,2,5,3,4,7,0,2,4
16:23:17.311357,0,-3,-3,-10,-2,0,2,1
16:23:17.311357,-2,1,2,-22,-6,3,0,-1
16:23:17.326347,1,2,-2,2,4,-2,1,-3
16:23:17.333346,-4,-1,-1,-2,1,0,1,1
16:23:17.348334,-1,-1,-2,0,-2,-1,-3,0
16:23:17.356330,-2,0,-2,-1,-10,-5,-3,-2
16:23:17.371322,-3,-3,-2,-5,-4,-3,-4,-2
16:23:17.372321,-1,1,-3,-2,-2,-3,-1,0
16:23:17.386313,-1,-3,-3,3,1,0,-1,0
16:23:17.394306,-4,-2,-1,-1,-1,-1,-2,-2
16:23:17.409301,2,0,1,-1,2,1,0,-1
16:23:17.416295,-2,-2,0,-1,0,-3,-5,-3
16:23:17.439280,-5,-1,-3,-1,0,3,-14,-15
16:23:17.439280,4,0,-1,0,2,0,-5,16
16:23:17.446277,-5,-1,-1,-2,-3,-15,-16,-13
16:23:17.454268,3,-1,0,-2,-1,5,22,19
16:23:17.469262,-1,-2,1,4,-9,-7,-13,-15
16:23:17.476257,-1,1,-2,-7,-3,-4,-2,-10
16:23:17.491249,0,-1,2,16,4,-6,-9,0
16:23:17.492245,-4,-4,-3,-29,-21,-3,12,-1
16:23:17.506238,2,-1,0,-1,3,3,-4,-1
16:23:17.514235,0,0,-1,-3,-2,-1,1,-5
16:23:17.529226,-3,0,-5,-7,-2,1,-2,-5
16:23:17.536222,-1,1,4,3,7,6,3,-2
16:23:17.551212,-4,-3,0,-2,0,-3,-18,-9
16:23:17.552210,-2,-1,-1,2,-4,-3,5,10
16:23:17.566203,-5,-4,-3,-2,-5,-2,-9,-10
16:23:17.581194,-1,-3,-4,0,3,5,8,-2
16:23:17.596184,-3,1,-1,-3,-6,-3,-6,-2
16:23:17.604180,1,1,-1,3,3,8,-3,9
16:23:17.611175,-2,-4,0,-1,-2,1,0,0
16:23:17.612172,-3,1,1,-3,0,-2,-3,-4
16:23:17.626164,-1,-3,-3,1,0,-1,1,0
16:23:17.634159,-2,-4,-3,-2,1,2,-10,-1
16:23:17.649151,-5,-1,0,0,0,2,7,2
16:23:17.664143,0,-4,-2,-2,1,0,0,-2
16:23:17.671138,-2,2,0,-3,0,-1,-7,-5
16:23:17.672137,1,-2,0,-1,-3,2,4,10
16:23:17.687128,1,0,0,8,-18,-2,0,0
16:23:17.694122,0,-1,-3,-5,3,3,-1,1
16:23:17.709115,1,0,1,-2,-1,1,3,5
16:23:17.717107,3,2,-1,-1,0,-6,6,6
16:23:17.731101,-2,-1,2,1,-3,0,-2,0
16:23:17.732098,-5,-1,-2,-2,2,-2,13,0
16:23:17.746091,1,0,-1,0,0,-2,-5,-2
16:23:17.754087,2,2,2,6,5,4,6,5
16:23:17.769078,0,3,0,1,4,6,-1,1
16:23:17.776071,-3,0,2,-7,0,1,1,-1
16:23:17.799059,3,0,2,3,-1,2,1,-1
16:23:17.800058,1,-3,-1,-1,-8,-1,-1,-2
16:23:17.807052,-3,-2,-1,-1,5,1,1,-2
16:23:17.814048,2,-2,0,11,2,3,1,2
16:23:17.829038,0,-3,0,-6,7,-1,2,0
16:23:17.837033,-2,2,0,-8,0,-1,2,-3
16:23:17.851025,2,0,0,-11,-21,2,2,0
16:23:17.852024,-1,-2,-2,3,6,0,1,3
16:23:17.866015,2,-1,-1,-2,-7,-4,-2,-1
16:23:17.874012,1,-3,-1,-4,-5,-1,0,3
16:23:17.889001,0,0,-3,-10,-6,-3,0,-1
16:23:17.895996,-2,2,0,18,4,0,0,1
16:23:17.911987,-4,-3,0,3,9,5,0,1
16:23:17.911987,2,0,-2,-4,4,4,2,5
16:23:17.926978,1,-1,-2,-4,-10,-6,1,-3
16:23:17.933973,-3,-1,-1,9,-6,-3,0,-3
16:23:17.949964,-1,-2,-3,-10,-12,-1,0,0
16:23:17.970950,0,-2,-2,2,6,1,1,2
16:23:17.971960,2,-1,3,3,-1,-3,1,1
16:23:17.978946,-2,-2,-5,-5,5,1,0,-1
16:23:17.985945,-1,-1,-2,4,6,2,4,-1
16:23:17.993936,-2,2,-1,5,3,-1,2,-1
16:23:18.008926,-1,0,-1,-2,0,-2,-2,-4
16:23:18.015922,1,-1,-1,-3,1,1,-1,1
16:23:18.030921,0,0,0,-3,-4,-1,-1,-1
16:23:18.038909,-4,-5,-3,-2,1,-8,-13,-7
16:23:18.053901,-1,-1,-1,4,0,-1,-2,0
16:23:18.053901,-1,-2,0,8,8,0,0,-1
16:23:18.068890,-1,-4,-2,0,-7,0,1,-4
16:23:18.075887,-3,-2,0,-4,-3,-2,-2,-1
16:23:18.091876,1,-1,-1,-1,-5,2,2,1
16:23:18.105867,1,-3,0,2,-2,-3,-1,0
16:23:18.113863,-4,1,4,5,3,-3,-4,0
16:23:18.113863,1,-4,-3,-25,-14,-2,1,-1
16:23:18.128853,-6,-3,-3,6,6,-1,-4,-1
16:23:18.136849,-2,-1,-1,0,1,-1,-3,-2
16:23:18.150840,-1,0,-2,2,-4,0,0,-2
16:23:18.158835,2,5,3,2,5,3,5,2
16:23:18.173825,-2,-1,-1,2,-3,-3,-1,-2
16:23:18.173825,1,-1,1,-3,3,3,2,-3
16:23:18.188816,-1,1,3,35,8,0,1,-4
16:23:18.195823,-1,-2,-3,-9,-6,-1,-3,0
16:23:18.210802,1,-3,-1,-2,-3,-3,0,-1
16:23:18.218798,-1,1,0,9,7,-3,-2,-2
16:23:18.233788,-3,0,-1,-15,-12,-3,0,2
16:23:18.233788,1,1,1,-2,4,2,-3,-1
16:23:18.248780,-2,0,-3,-9,-4,0,-1,2
16:23:18.256775,-4,-2,1,2,-7,-3,-1,1
16:23:18.271766,1,-1,-1,-4,-6,0,2,2
16:23:18.278761,-1,-1,-1,-1,-6,-3,-4,1
16:23:18.293752,-4,1,1,-3,-15,-3,2,-5
16:23:18.294752,-1,-4,-5,1,5,0,-1,-3
16:23:18.308743,1,1,2,16,4,0,1,0
16:23:18.316738,1,-1,1,0,-4,-4,-1,0
16:23:18.332728,-1,1,1,15,8,5,0,-3
16:23:18.338724,-3,-2,1,0,-4,-1,4,1
16:23:18.353715,1,1,0,-1,-2,0,-1,0
16:23:18.353715,-1,1,-3,1,2,-3,2,4
16:23:18.368706,0,-2,1,-13,-1,2,0,2
16:23:18.375702,4,-1,-1,5,7,-2,9,1
16:23:18.390692,1,1,2,2,-4,-3,-11,-2
16:23:18.398687,-4,0,-3,-5,-8,-1,1,-4
16:23:18.413677,0,-4,-3,-5,-4,1,-4,-1
16:23:18.413677,-3,-1,-4,-3,-2,0,-1,-3
16:23:18.428668,-1,0,2,8,2,1,-1,0
16:23:18.436665,-5,-4,-4,-2,-8,-4,0,-1
16:23:18.451654,0,1,0,-1,-3,1,1,0
16:23:18.458650,1,1,-1,2,0,-3,1,2
16:23:18.473641,-1,-2,-2,-1,-5,0,2,0
16:23:18.474641,1,-1,-4,-1,2,-3,1,2
16:23:18.495626,-4,-1,-3,2,-1,0,0,0
16:23:18.496627,1,-2,0,1,-3,-4,0,2
16:23:18.511617,-3,-1,-2,-2,-5,3,-12,-1
16:23:18.518613,0,-2,1,1,4,5,6,-1
16:23:18.533604,-3,-2,1,-1,-1,3,-5,-1
16:23:18.534604,1,1,1,-3,-2,0,3,-3
16:23:18.556590,1,0,1,2,0,-3,-3,-9
16:23:18.556590,-1,-3,-4,-3,-4,6,9,-6
16:23:18.571585,-1,1,-1,1,3,-2,18,12
16:23:18.578576,-2,-3,-5,-13,-4,-3,-5,-5
16:23:18.593567,-1,1,1,0,-5,-8,-7,-4
16:23:18.593567,3,0,2,-2,9,5,12,2
16:23:18.610557,-2,-1,0,-4,2,2,3,9
16:23:18.616553,-2,0,1,0,-1,0,0,3
16:23:18.631545,-1,2,-3,-3,-3,-4,-2,-2
16:23:18.638540,2,0,0,3,3,3,3,3
16:23:18.653530,1,0,2,1,-3,4,-1,1
16:23:18.654530,2,-2,-1,-1,0,-1,0,6
16:23:18.668520,-3,-1,-4,0,1,-1,-3,-4
16:23:18.676516,-4,-6,-1,-3,-4,-3,0,-1
16:23:18.698502,0,1,2,2,-5,3,2,-2
16:23:18.699502,0,-2,-4,-12,-7,-8,-17,2
16:23:18.721489,-2,-2,-2,-6,-5,-1,0,-5
16:23:18.721489,-2,3,1,-4,2,0,4,2
16:23:18.728523,0,-4,-2,0,2,1,-2,-1
16:23:18.736480,-3,-1,-2,-1,-3,-4,-3,1
16:23:18.751471,-1,-1,-2,1,-3,-2,-3,1
16:23:18.758533,2,2,3,0,3,-2,4,4
16:23:18.773528,0,-2,-3,-3,4,3,-2,2
16:23:18.781451,1,-1,0,-1,-1,0,1,2
16:23:18.788452,-5,-2,-1,-3,-1,1,9,-5
16:23:18.803440,1,0,-2,-1,3,3,0,4
16:23:18.811434,0,-1,-1,-1,-4,-6,0,1
16:23:18.819430,-4,-1,0,-1,1,-2,-1,0
16:23:18.833420,-2,3,-1,-2,-1,1,0,-4
16:23:18.834419,-4,1,-1,-3,1,0,-1,0
16:23:18.848410,-2,1,-1,-1,-1,-4,-4,0
16:23:18.856405,-1,-3,1,-3,9,1,10,5
16:23:18.871396,0,3,2,4,-3,-6,-1,1
16:23:18.878391,-3,-3,-2,-1,1,-1,-1,-1
16:23:18.893382,-1,0,0,12,3,0,-5,-2
16:23:18.894382,-4,-4,-4,-3,0,-6,-3,-3
16:23:18.908373,-1,-3,-4,-2,-1,0,-1,3
16:23:18.916370,0,0,2,-1,-6,-1,1,-1
16:23:18.938354,2,0,1,0,1,1,4,2
16:23:18.939354,0,-2,-1,3,2,0,0,2
16:23:18.953345,2,-1,-2,0,0,-4,-1,-2
16:23:18.961340,-3,-1,-1,2,-1,-1,0,1
16:23:18.976331,-1,-3,-2,-4,-2,1,-2,-1
16:23:18.976331,-1,-2,-1,-2,-3,0,0,1
16:23:18.991323,-2,2,2,1,0,0,-2,1
16:23:18.998318,-3,-2,-2,-1,0,-1,-1,-3
16:23:19.013311,-2,-3,-5,-4,-6,-1,-5,-1
16:23:19.021305,-1,0,1,2,3,0,2,1
16:23:19.036295,1,-4,-2,-3,0,-2,1,-3
16:23:19.036295,-3,-1,-1,-3,-3,-4,-2,3
16:23:19.051286,-1,-1,4,2,3,-5,3,5
16:23:19.058284,-1,-2,-1,0,-3,-1,0,1
16:23:19.081268,-3,-2,-1,1,-1,0,0,-1
16:23:19.081268,-1,-2,-1,1,-4,-1,-1,1
16:23:19.096258,1,-1,1,2,0,1,2,-2
16:23:19.096258,0,-3,-2,-5,-7,-7,-1,1
16:23:19.111249,1,0,0,4,9,1,12,2
16:23:19.118287,1,-1,1,8,-4,-3,-6,1
16:23:19.134238,-2,-2,1,0,-2,-2,-2,0
16:23:19.141232,2,-1,1,1,1,-2,4,2
16:23:19.156224,-2,-1,-1,-1,-2,-4,-3,-1
16:23:19.157220,-1,0,0,-3,-3,-3,-2,-2
16:23:19.171212,1,-1,0,-1,0,-3,0,3
16:23:19.179210,-1,0,-3,-1,-1,3,6,3
16:23:19.194201,-1,-1,-1,0,-2,-3,-1,0
16:23:19.201195,-1,-1,-2,-3,1,-3,-1,1
16:23:19.217184,0,-3,-3,-1,-2,-2,-2,-2
16:23:19.218183,1,-3,-2,0,-4,-4,2,4
16:23:19.231175,0,-2,-3,0,2,1,-3,-2
16:23:19.246166,-2,-1,2,-1,-2,0,-2,0
16:23:19.254164,-2,1,-2,9,-5,-1,-1,-2
16:23:19.261157,-1,1,-1,0,-2,-1,-2,0
16:23:19.284143,-2,-2,-2,-2,0,2,2,-5
16:23:19.285142,-4,0,-2,1,1,1,2,-1
16:23:19.291139,-5,-1,-4,-2,-1,-1,-2,-3
16:23:19.299136,-1,-1,-3,-2,-1,-1,0,1
16:23:19.314127,-2,0,0,1,-3,-4,0,1
16:23:19.322122,0,-1,0,-5,-5,-4,0,-1
16:23:19.337111,-1,-1,-1,-4,1,-3,-2,-2
16:23:19.337111,1,1,0,3,1,0,0,3
16:23:19.352104,-1,1,-1,-5,-1,-9,-12,-6
16:23:19.359099,-2,0,-3,-3,0,3,2,-1
16:23:19.374090,-1,-1,-2,-2,-9,0,1,-3
16:23:19.381083,2,1,-3,-2,1,-1,1,1
16:23:19.396073,0,-3,1,-2,-2,-3,-1,-2
16:23:19.397075,-3,-1,-2,0,2,1,-1,1
16:23:19.412064,-2,0,-4,0,0,-5,0,-2
16:23:19.419062,-1,1,0,-1,-1,0,-1,-1
16:23:19.434050,-1,0,2,-5,-7,-3,-2,-2
16:23:19.441046,-3,-1,0,-5,-2,-3,1,-1
16:23:19.456037,-1,-1,-2,-3,0,-3,-1,0
16:23:19.457036,-3,1,0,0,0,1,-1,0
16:23:19.472030,-2,0,0,-3,-3,-4,2,-3
16:23:19.479025,-1,0,-1,-2,-2,1,1,1
16:23:19.494012,1,1,1,-1,7,2,-1,3
16:23:19.501008,2,0,-2,-3,-2,4,1,-3
16:23:19.515999,0,-3,-2,1,2,1,0,-3
16:23:19.516999,-3,0,3,-1,-2,-2,-2,0
16:23:19.530991,1,-1,-1,-4,-2,-3,0,1
16:23:19.538984,-2,-1,1,-1,4,1,1,-1
16:23:19.553977,0,3,-1,0,-4,-3,-1,1
16:23:19.561036,-1,0,-2,-2,3,1,0,1
16:23:19.575961,4,0,-1,0,2,4,3,2
16:23:19.576964,-1,-2,-2,-7,-6,0,-2,-2
16:23:19.591033,-3,-3,0,-1,-7,-4,-2,-2
16:23:19.605948,-1,-4,-1,8,-3,-2,11,0
16:23:19.613939,-3,0,-1,4,3,0,-6,-2
16:23:19.621007,-2,1,-4,-6,-4,2,2,2
16:23:19.635929,-2,1,0,-2,1,-3,-2,1
16:23:19.643921,-1,1,1,-1,-3,-1,0,2
16:23:19.650919,-2,-1,-1,-2,4,2,-1,0
16:23:19.658912,0,1,1,-4,2,0,0,1
16:23:19.673903,-2,-2,3,0,-1,-3,-1,-1
16:23:19.680900,0,0,1,0,2,3,0,1
16:23:19.703884,-5,-1,0,-3,-4,-5,-5,0
16:23:19.703884,-3,-3,-2,-4,-3,1,1,-1
16:23:19.710883,5,2,0,2,3,-2,-1,-2
16:23:19.718875,-3,0,0,-1,-1,-1,0,-1
16:23:19.740911,-1,1,1,-1,0,0,2,0
16:23:19.741867,0,-2,-1,-1,-2,-2,-1,-4
16:23:19.755869,-2,-1,3,1,0,-7,-13,1
16:23:19.763847,1,-1,0,-2,-3,-2,1,-3
16:23:19.770844,-2,1,-2,1,2,-2,1,1
16:23:19.778838,-3,-1,0,-5,-1,-5,0,1
16:23:19.808820,-2,0,-3,0,3,0,-3,-2
16:23:19.808820,2,3,-5,-3,-5,-3,1,0
16:23:19.815816,-2,-1,-3,1,2,1,1,-1
16:23:19.823811,-2,-1,2,-1,-2,2,-1,2
16:23:19.830805,0,1,-1,-4,-5,-2,2,1
16:23:19.838803,1,-1,0,1,-6,1,2,1
16:23:19.853801,-3,0,-2,-3,1,0,-4,-3
16:23:19.860795,-3,-2,0,-2,-4,0,-1,-2
16:23:19.875779,1,-2,1,0,1,1,-7,2
16:23:19.883773,-2,1,-1,-4,-3,0,-1,0
16:23:19.890770,0,-1,-1,1,0,1,-1,-1
16:23:19.898765,4,0,-1,-1,0,3,3,0
16:23:19.913755,-1,0,0,-2,2,-1,-1,0
16:23:19.920750,-3,-4,-2,-2,1,3,-2,-1
16:23:19.936741,-2,2,-1,-1,-1,1,-2,0
16:23:19.943736,1,-1,0,0,2,-1,1,1
16:23:19.958734,0,-5,-1,-4,-3,-3,1,-2
16:23:19.966722,-4,2,0,-1,0,1,-2,-2
16:23:19.973718,0,2,-2,0,0,3,3,-2
16:23:19.980741,-4,-1,-1,-1,-2,0,0,-1
16:23:19.995707,0,-2,1,-3,-2,-1,-2,-1
16:23:20.003698,-1,-1,-1,2,-1,-3,2,2
16:23:20.018690,1,-4,-3,-3,0,-3,0,-3
16:23:20.019689,-1,1,-4,-1,-7,-5,0,0
16:23:20.033680,0,0,0,-4,-3,-4,-12,-2
16:23:20.048671,0,-1,-1,-1,1,-1,2,1
16:23:20.055670,-3,-2,-3,0,-5,-2,-2,-5
16:23:20.063662,1,-2,3,0,-3,1,-2,-1
16:23:20.078654,-5,-1,0,0,-1,0,-2,0
16:23:20.078654,2,-1,1,1,3,-2,3,1
16:23:20.093643,-2,0,-2,2,-3,0,-1,-1
16:23:20.101638,-2,0,-2,-2,-2,1,-1,-3
16:23:20.116630,-2,-1,0,1,3,0,0,1
16:23:20.123625,0,-2,-3,1,0,1,1,-1
16:23:20.138616,-5,-3,-2,-1,-1,1,-6,1
16:23:20.139616,0,-4,0,-1,1,0,1,0
16:23:20.153606,-2,-1,-2,4,-1,-1,0,-3
16:23:20.168597,2,0,-2,-3,-2,0,4,0
16:23:20.175619,0,-1,-2,-1,-1,2,2,0
16:23:20.183589,-2,-5,0,-4,1,5,1,-1
16:23:20.198580,-1,-1,-1,-1,0,-2,-1,0
16:23:20.199578,-1,-4,-5,-5,-1,2,1,-2
16:23:20.213570,-2,-1,0,0,-1,-1,0,0
16:23:20.221566,3,-1,-4,-1,-4,0,1,-1
16:23:20.236566,-1,0,1,1,-3,-2,-3,-2
16:23:20.243550,-1,-1,0,0,-2,-1,0,-1
16:23:20.258543,-1,-4,0,2,5,1,-2,0
16:23:20.259543,2,3,-1,2,2,-1,3,2
16:23:20.273538,-4,-1,-2,0,2,0,0,2
16:23:20.281527,-1,-1,-1,-3,-4,-3,1,-2
16:23:20.296518,-3,-3,-2,1,-1,-5,-13,-1
16:23:20.303538,-2,-2,0,0,2,-2,2,2
16:23:20.318504,-4,-3,-3,0,3,-3,-2,-3
16:23:20.319504,0,-2,0,-3,-2,0,2,1
16:23:20.334495,1,-5,-1,-2,-3,-3,0,-3
16:23:20.341494,-3,-2,-3,0,-2,1,-1,0
16:23:20.356485,0,1,0,2,-1,-1,1,2
16:23:20.363481,-2,-2,-1,-2,-4,-3,-2,0
16:23:20.379468,-2,1,0,0,-6,0,0,1
16:23:20.379468,-2,-2,-2,1,0,-4,-1,-1
16:23:20.394461,-2,-2,-2,-1,-2,-3,1,-2
16:23:20.401456,0,2,-2,-5,-1,-1,2,0
16:23:20.416447,-2,0,-1,-1,-1,-2,1,3
16:23:20.424440,1,-1,2,0,-5,-6,-1,1
16:23:20.439434,-1,-3,1,0,5,1,1,-3
16:23:20.439434,-4,-1,-2,-3,-5,-3,-1,1
16:23:20.454422,1,-2,-3,-1,-4,-5,-2,0
16:23:20.461418,0,0,-2,0,2,2,2,3
16:23:20.476408,-1,-4,0,-2,-4,1,-1,2
16:23:20.483404,-1,-2,1,0,0,-1,-2,0
16:23:20.499394,1,0,1,-1,-3,-1,-2,-3
16:23:20.504391,-1,-1,0,2,0,-1,1,0
16:23:20.521381,0,-1,1,2,-2,1,0,1
16:23:20.522382,-3,-3,-1,-1,-7,1,0,-1
16:23:20.536371,-4,-2,-1,-3,0,0,0,-2
16:23:20.543368,2,-4,-4,1,-4,3,1,0
16:23:20.558357,-1,3,1,-1,1,-1,-2,1
16:23:20.559357,-1,-1,0,-4,-4,1,-2,0
16:23:20.573351,1,0,0,-3,-15,-6,-1,-2
16:23:20.581342,-3,-1,2,0,4,0,3,1
16:23:20.596335,2,0,-1,-4,-1,3,0,2
16:23:20.603330,-2,1,0,-1,-3,-4,-1,0
16:23:20.618329,0,-1,1,2,1,0,-1,0
16:23:20.619320,2,2,-1,1,1,2,3,5
16:23:20.641309,1,-2,-4,-3,-2,1,2,-3
16:23:20.642305,-2,-1,-3,-1,-2,-1,-2,-3
16:23:20.656298,-1,-1,0,-3,-3,2,0,0
16:23:20.664292,0,-2,-3,-3,-1,0,3,3
16:23:20.678286,-2,-1,-3,-1,0,-3,-1,-2
16:23:20.679283,-1,-1,1,-1,3,-1,0,1
16:23:20.693277,-2,0,-1,-4,1,2,-1,-3
16:23:20.701271,-1,1,-4,-5,-4,-4,1,0
16:23:20.716260,-1,-1,-4,-4,-3,-5,0,-3
16:23:20.723259,0,-1,-4,-1,3,0,-4,-2
16:23:20.746243,1,-1,-1,1,-3,0,-1,-1
16:23:20.746243,-2,0,1,0,2,1,0,1
16:23:20.753238,3,4,5,3,6,6,0,2
16:23:20.761232,0,-4,0,-2,-3,-2,0,1
16:23:20.776223,1,-4,1,-4,-4,2,0,-3
16:23:20.784219,1,-3,0,-3,-4,0,2,3
16:23:20.798211,-1,-5,-4,-3,0,2,-1,0
16:23:20.799209,2,0,-1,3,-2,1,0,3
16:23:20.814201,-1,-3,-3,-4,1,1,1,0
16:23:20.821196,-3,0,0,-3,-2,-1,1,-2
16:23:20.836186,1,0,3,4,0,-1,-1,1
16:23:20.844183,1,0,-3,-15,4,1,4,1
16:23:20.859176,-3,-2,-1,3,-1,-4,-2,-4
16:23:20.866168,-2,-2,-2,-5,-7,-2,-1,-1
16:23:20.881162,2,-1,-2,0,2,-2,1,2
16:23:20.882159,-3,1,-2,-1,-2,-2,-2,1
16:23:20.904145,-3,-1,2,0,-2,1,0,1
16:23:20.904145,2,0,-1,6,3,2,0,1
16:23:20.919139,-1,1,-4,0,-4,0,-2,-3
16:23:20.926132,1,1,1,1,0,0,2,4
16:23:20.942121,-2,0,0,2,4,1,-2,-1
16:23:20.942121,0,-3,0,-4,6,-2,2,2
16:23:20.956114,-2,0,-3,-6,-5,-1,-2,-2
16:23:20.963111,-3,-2,-3,-1,2,0,-3,-1
16:23:20.979099,0,-1,-3,-1,-8,-2,0,-3
16:23:20.986094,2,-2,1,2,0,2,3,2
16:23:21.001085,0,-2,-3,-2,-1,-1,-3,-1
16:23:21.002084,0,0,0,-4,2,1,-1,-2
16:23:21.016076,-4,-6,-3,-4,-4,1,-1,-1
16:23:21.024070,3,3,1,4,2,-1,2,2
16:23:21.039063,-2,-3,-1,-3,-1,-2,-1,-2
16:23:21.046058,-2,1,-3,-1,-1,1,0,-4
16:23:21.061053,-4,0,-1,-4,2,1,-2,-3
16:23:21.062047,2,0,-2,0,2,2,-1,-3
16:23:21.076039,-2,-2,1,-3,-3,1,-1,-1
16:23:21.084035,1,2,1,2,2,0,0,1
16:23:21.099025,-4,-2,1,-3,0,0,-1,-2
16:23:21.106020,3,2,0,0,-2,-4,2,-1
16:23:21.121011,-3,-2,-2,1,-2,-1,-1,1
16:23:21.122012,-1,-2,1,2,4,2,1,1
16:23:21.136001,-3,0,-2,-2,-1,-1,-2,0
16:23:21.143996,0,2,0,-2,-1,1,2,3
16:23:21.158989,2,1,-2,1,0,0,-3,-1
16:23:21.166983,-2,2,-1,2,1,1,2,-1
16:23:21.180974,-1,0,1,0,-3,-2,-2,0
16:23:21.188970,2,-2,0,1,-3,-1,0,-5
16:23:21.196034,3,-1,0,-3,1,-3,-2,-2
16:23:21.203961,1,-1,-1,-1,-8,3,1,-1
16:23:21.218952,-4,-3,-1,0,2,-2,-1,-3
16:23:21.225946,1,-1,1,-1,-1,4,1,-1
16:23:21.240942,-5,2,-2,0,-1,-2,-4,1
16:23:21.248934,-1,2,0,2,0,1,-3,-1
16:23:21.255932,0,-3,-4,-2,-4,0,0,0
16:23:21.271921,1,-2,0,3,-3,1,-1,2
16:23:21.278917,3,-1,0,-1,0,1,-1,-3
16:23:21.286911,0,0,-2,0,3,1,-1,2
16:23:21.301902,-2,-2,-2,2,1,-2,-2,-3
16:23:21.301902,-3,-2,1,1,4,4,0,-2
16:23:21.316892,-2,-3,1,0,0,-3,-1,0
16:23:21.323890,1,4,0,-2,2,-1,-2,-1
16:23:21.338881,-2,0,-3,-1,0,0,-1,1
16:23:21.346873,-1,1,0,-1,0,0,0,-2
16:23:21.361864,-1,-4,-2,3,0,1,0,0
16:23:21.361864,1,1,-1,-1,1,-1,2,-4
16:23:21.376857,-1,1,2,2,2,1,1,2
16:23:21.383850,0,3,0,-1,0,8,2,-2
16:23:21.398843,0,2,4,3,0,2,3,0
16:23:21.406839,0,1,-1,-1,-2,-2,-1,0
16:23:21.421828,-2,-2,-1,-1,-4,-1,-4,0
16:23:21.421828,0,-3,-3,-4,0,1,0,-2
16:23:21.436821,1,-4,1,-2,-3,2,2,-1
16:23:21.443816,1,0,1,-2,0,3,-1,0
16:23:21.458806,0,-1,-1,3,-4,-1,2,-2
16:23:21.466799,3,0,0,-3,-2,1,-1,0
16:23:21.481789,0,0,-3,-3,-1,-3,-1,-3
16:23:21.481789,-3,-2,-4,-2,-4,-4,0,-3
16:23:21.496783,-2,1,-2,-5,-1,1,-1,3
16:23:21.503779,2,1,-2,1,0,0,2,0
16:23:21.518769,0,3,1,3,1,2,-2,3
16:23:21.526766,0,-2,-2,1,2,1,-1,-1
16:23:21.548751,1,-3,1,0,3,1,1,1
16:23:21.549748,1,-1,-1,0,0,-3,-1,3
16:23:21.556747,-1,0,-2,-1,2,-3,-1,0
16:23:21.563742,0,-1,0,1,-1,-1,-1,-4
16:23:21.586726,0,-2,-1,2,-2,1,0,0
16:23:21.586726,1,0,0,-3,1,-1,-1,0
16:23:21.601727,1,-3,-4,1,-1,0,-1,-2
16:23:21.602716,-4,-1,-5,-2,-3,-2,-1,-4
16:23:21.616709,0,1,-2,2,0,0,1,1
16:23:21.623704,0,1,-1,0,0,0,-1,-2
16:23:21.638694,0,1,-1,0,1,-2,2,-3
16:23:21.646691,-3,0,1,1,-3,0,0,-2
16:23:21.661682,2,0,-2,0,-1,-2,0,1
16:23:21.662682,0,-1,0,-3,-3,-2,0,-1
16:23:21.676673,-1,0,-2,-2,0,1,0,-1
16:23:21.683668,0,0,-1,-1,0,-1,-1,-2
16:23:21.698656,1,-1,1,3,2,3,0,1
16:23:21.706654,-3,3,0,1,3,1,-2,-3
16:23:21.721645,0,-3,-3,-1,-2,0,0,-1
16:23:21.722644,-1,-1,0,0,2,0,1,0
16:23:21.736636,0,0,0,-1,-2,-1,0,-5
16:23:21.744628,-3,0,-1,-3,1,4,-6,-3
16:23:21.758620,0,-2,-1,0,4,-1,2,2
16:23:21.766618,0,0,1,1,2,6,2,-2
16:23:21.781608,-1,1,0,-2,-3,1,-1,-3
16:23:21.788601,-2,1,0,1,0,1,-1,1
16:23:21.796599,-2,0,-2,-3,-1,-3,-3,-1
16:23:21.804595,0,0,-3,-2,3,2,-1,0
16:23:21.819585,-1,1,1,1,-4,0,0,-1
16:23:21.826581,-1,-1,-1,-1,1,-1,1,2
16:23:21.841571,-1,-3,-1,-3,1,1,-1,-3
16:23:21.856562,1,-2,-2,-2,-2,-3,3,-2
16:23:21.863556,-1,-1,0,-3,-1,1,-2,-1
16:23:21.864556,-3,1,0,0,-4,4,-1,-1
16:23:21.878546,1,0,-2,-4,-1,0,-1,-1
16:23:21.886544,0,-1,-1,-3,-1,-5,-1,-3
16:23:21.901534,-1,-1,-2,0,1,-1,0,1
16:23:21.908526,4,-2,-2,-3,0,-2,-2,0
16:23:21.923518,-1,-1,1,-2,3,-1,1,0
16:23:21.924517,1,1,2,0,7,1,-1,1
16:23:21.939508,0,-1,0,-1,-4,-2,-1,-2
16:23:21.946506,1,1,1,-3,5,-1,-3,0
16:23:21.961497,2,1,-1,-1,0,-1,0,-4
16:23:21.969492,-1,-3,-1,-1,-2,1,-1,-1
16:23:21.991479,0,-1,0,0,-3,0,-5,-1
16:23:21.991479,0,1,2,2,0,1,-2,-1
16:23:22.006470,-2,-2,0,0,2,2,1,1
16:23:22.007469,0,-1,-1,-3,-2,0,-1,1
16:23:22.021460,-3,0,0,0,1,-3,-1,0
16:23:22.028456,-1,0,3,2,5,1,-1,-2
16:23:22.043445,-1,0,-5,0,-3,0,1,-3
16:23:22.044443,-1,-3,-2,-2,0,-1,0,-2
16:23:22.059435,2,0,0,-1,-2,-5,-1,3
16:23:22.066430,-3,-1,0,1,0,3,-2,-3
16:23:22.081423,0,-2,-3,-2,-3,0,-3,0
16:23:22.089415,0,0,1,1,0,-3,-2,-3
16:23:22.104406,-2,-1,-2,-3,-2,-2,0,-2
16:23:22.104406,0,-1,1,2,1,-1,0,-1
16:23:22.119398,-2,0,0,-3,-2,-2,2,-1
16:23:22.126396,1,1,-1,1,2,1,-2,2
16:23:22.141386,0,-1,3,3,3,0,0,0
16:23:22.149379,-1,3,4,2,3,2,-1,0
16:23:22.164371,-1,1,-4,0,0,-3,1,-3
16:23:22.171368,0,1,2,1,5,7,0,2
16:23:22.179361,1,0,-1,0,0,-2,0,0
16:23:22.186359,-2,1,-1,-3,-3,0,0,1
16:23:22.201350,1,-3,0,3,0,-1,0,-1
16:23:22.209341,2,0,1,-1,-2,-1,-3,-1
16:23:22.224332,-2,-2,1,-1,-1,0,0,0
16:23:22.224332,1,1,-2,-2,3,-1,1,0
16:23:22.239323,-3,-2,-2,2,-1,0,1,-4
16:23:22.246322,-2,0,0,-3,-3,0,1,-2
16:23:22.261313,-2,-2,-4,1,-3,-3,-5,0
16:23:22.269304,0,0,0,0,0,-2,0,-2
16:23:22.284296,-5,-1,0,1,-2,-4,0,-1
16:23:22.284296,0,-2,-1,1,0,2,-1,1
