timestamp,emg1,emg2,emg3,emg4,emg5,emg6,emg7,emg8
15:26:19.763961,0,0,-1,3,2,1,2,2
15:26:19.773956,3,1,1,-1,-3,0,-1,-4
15:26:19.783948,0,-2,2,-1,0,0,1,-2
15:26:19.796942,-1,-1,0,-2,-5,-1,-1,-2
15:26:19.811930,-3,-2,1,0,-3,-2,0,1
15:26:19.818929,0,0,3,1,-4,-3,-1,-1
15:26:19.818929,-2,2,0,4,12,0,-1,1
15:26:19.833918,-1,-1,1,-5,-6,-1,0,-1
15:26:19.840913,-3,0,1,0,0,0,1,-2
15:26:19.855904,1,-1,-2,0,-3,0,-2,-2
15:26:19.863899,-3,-2,0,-3,0,0,1,-1
15:26:19.878889,1,-2,-1,-1,-1,-2,1,-1
15:26:19.878889,-5,-2,-3,1,-2,1,-3,-5
15:26:19.900875,0,-2,-1,0,-4,-4,0,-3
15:26:19.901873,0,1,0,0,-4,-1,-1,1
15:26:19.916866,0,-1,-1,0,-2,-1,1,-4
15:26:19.923861,0,-2,-1,-4,2,2,0,-3
15:26:19.938852,0,3,-3,-1,-2,0,-3,3
15:26:19.938852,0,2,-1,0,-9,1,0,-3
15:26:19.953842,-2,-1,0,-1,4,0,0,-3
15:26:19.960865,0,-1,2,-2,-1,1,1,-1
15:26:19.976829,0,3,-3,1,1,0,1,-2
15:26:19.983824,1,-3,-1,-2,-3,-1,-1,0
15:26:19.998815,-1,-2,0,1,-1,-3,-2,-2
15:26:19.998815,-1,-1,-1,-2,-3,1,0,1
15:26:20.013805,0,-2,-1,-3,-2,-1,-3,0
15:26:20.020804,1,0,-3,-2,2,-1,-2,2
15:26:20.036792,-1,2,-1,2,-1,-3,0,1
15:26:20.043786,-3,-1,-3,-3,-3,-1,-1,-2
15:26:20.058778,-2,-4,-1,-3,-2,-2,1,-1
15:26:20.058778,1,1,1,1,-4,-1,0,-1
15:26:20.073766,-3,2,-1,-4,-3,1,0,-2
15:26:20.088766,2,-2,1,2,4,1,0,-1
15:26:20.095756,-2,-1,-2,-1,-4,-1,-1,-2
15:26:20.103749,0,0,-3,-1,1,-1,-1,2
15:26:20.118740,-2,1,-1,-4,-2,-3,0,-3
15:26:20.119738,1,3,1,1,-5,-1,-3,-2
15:26:20.133731,-3,-2,-2,3,0,-3,-4,-3
15:26:20.141726,-1,-3,-1,-2,0,1,1,-1
15:26:20.163713,1,0,0,0,-2,-2,-2,0
15:26:20.164712,-1,-3,5,5,1,0,1,2
15:26:20.178704,-3,0,-3,-4,-4,0,1,-4
15:26:20.179710,1,2,0,2,1,-1,0,0
15:26:20.193692,1,2,-1,-3,-5,-7,-2,-1
15:26:20.208700,2,2,-3,-1,-8,-1,-3,-4
15:26:20.215683,4,0,2,0,2,1,2,1
15:26:20.231672,0,-3,-2,2,2,1,0,-1
15:26:20.238669,-4,-1,0,0,-3,1,1,0
15:26:20.239667,0,-1,-3,-6,-1,-3,1,0
15:26:20.253658,0,-2,-1,-2,-2,-2,-2,3
15:26:20.261654,-2,0,1,-3,-7,0,0,-2
15:26:20.276644,0,0,-1,3,-8,-1,-2,-1
15:26:20.283637,0,-6,-3,0,4,-4,-1,-2
15:26:20.298629,-3,1,-1,-1,0,-2,-2,0
15:26:20.299629,-1,-1,0,-1,-1,0,-2,-3
15:26:20.321617,0,1,0,-1,-2,-2,2,-1
15:26:20.322613,0,-3,-1,-1,-2,-3,0,0
15:26:20.337606,-3,-1,-1,0,0,-2,1,-5
15:26:20.343602,0,-2,-1,-2,-1,0,-2,0
15:26:20.359593,-2,1,-2,-3,-1,-2,-1,-1
15:26:20.359593,1,-2,2,3,-6,-1,2,-1
15:26:20.374581,-4,-2,1,-4,-2,1,-1,0
15:26:20.381580,0,-1,1,0,5,4,-1,1
15:26:20.396570,0,-4,-1,0,-3,0,-3,1
15:26:20.411561,-2,-2,-1,-1,-3,-4,1,-2
15:26:20.419553,-1,1,1,3,-1,-2,-3,0
15:26:20.419553,-2,-6,-3,-1,-2,-1,-4,-3
15:26:20.434544,0,-4,0,-1,-1,1,-2,2
15:26:20.441542,0,-2,-1,-1,-4,-5,-2,-1
15:26:20.456533,-1,2,-4,-4,-6,-3,-2,-2
15:26:20.463532,-2,0,1,3,9,0,-2,-2
15:26:20.479516,0,-1,0,2,0,-3,-2,-2
15:26:20.479516,1,1,1,-2,0,0,1,-1
15:26:20.494506,-4,-1,0,3,-2,-2,-3,0
15:26:20.501502,0,0,-1,2,2,-1,0,-2
15:26:20.516495,2,-1,-2,-5,-1,5,2,0
15:26:20.524487,1,0,-3,2,-1,0,1,-1
15:26:20.539480,-3,-1,1,-3,-1,-1,-2,-4
15:26:20.539480,-1,0,-1,3,0,1,-2,-1
15:26:20.554469,1,-1,-2,0,1,-2,-2,-1
15:26:20.561468,1,-1,1,0,-4,0,-1,2
15:26:20.584451,-1,-4,0,0,0,1,-3,-4
15:26:20.585450,-2,3,-2,-2,-4,-3,-2,0
15:26:20.599442,0,1,0,0,1,2,0,-2
15:26:20.599442,-2,-4,0,-3,-4,-3,-3,-3
15:26:20.614432,0,2,0,0,5,5,1,1
15:26:20.621430,-2,-3,-1,-1,-8,-3,-4,-1
15:26:20.636419,0,-2,-1,-5,-5,0,-4,-1
15:26:20.644417,-1,-4,-2,-2,-1,-1,1,-1
15:26:20.659405,1,-1,2,-1,-8,-3,-2,-1
15:26:20.659405,-3,1,0,-4,-4,2,0,-1
15:26:20.674398,1,1,0,1,3,1,-1,-2
15:26:20.681393,-3,-2,-2,3,1,0,0,-3
15:26:20.696384,0,1,1,2,0,-3,0,1
15:26:20.704376,-1,-1,1,-3,0,0,2,0
15:26:20.719367,1,2,-2,-1,-7,-4,-3,-1
15:26:20.726365,0,-1,-2,-3,-4,1,-2,2
15:26:20.741355,-1,0,0,1,2,-1,1,-3
15:26:20.742354,1,-3,-2,0,2,-1,-1,-3
15:26:20.756346,-2,-2,-1,-3,-4,-4,-1,-2
15:26:20.763341,1,0,-1,-2,-1,-4,-4,1
15:26:20.779331,0,0,3,1,1,1,0,1
15:26:20.786326,-2,2,-5,-3,-3,0,-1,-2
15:26:20.801316,5,3,1,10,-3,0,1,4
15:26:20.802315,-2,-3,-2,-4,-1,-1,1,-3
15:26:20.816309,-3,0,-3,-6,-1,0,-1,-1
15:26:20.824303,-1,-3,-2,2,1,1,0,1
15:26:20.839292,-1,0,0,0,-4,-5,0,-3
15:26:20.846290,-3,2,0,0,6,4,0,-1
15:26:20.861280,0,0,0,-1,-4,0,-1,-2
15:26:20.862280,1,-2,-1,1,1,-2,-1,-1
15:26:20.876274,-2,0,1,-4,-4,0,-1,-1
15:26:20.884264,-4,-2,-5,-2,4,-1,0,0
15:26:20.899258,1,-3,-3,-2,-3,1,-3,-1
15:26:20.906253,-2,1,2,2,3,2,-4,-1
15:26:20.921243,-2,0,-1,-2,-1,-1,-1,-2
15:26:20.922244,0,2,2,-2,-2,1,0,2
15:26:20.944230,-1,-1,0,-1,2,-1,-1,0
15:26:20.945230,2,-3,-1,-1,-4,-1,1,-1
15:26:20.966216,0,-1,-2,1,4,1,-4,1
15:26:20.967213,-3,1,0,-3,-2,0,0,1
15:26:20.981206,-1,-3,2,0,-1,-1,-1,-4
15:26:20.982204,0,1,-2,0,0,-1,-4,2
15:26:20.997197,-1,0,-2,-3,-8,-2,-1,-2
15:26:21.004193,-1,-2,-1,-3,6,1,-4,-2
15:26:21.019182,6,1,-1,-2,-2,2,1,4
15:26:21.026178,-4,0,0,-2,-2,-4,0,-1
15:26:21.041169,7,2,3,4,3,3,2,4
15:26:21.042169,-1,-5,-1,1,1,0,-5,-5
15:26:21.057160,-2,-2,0,-1,-1,-2,1,-1
15:26:21.064156,-1,-3,0,1,12,3,0,1
15:26:21.079147,0,-1,-1,-3,-2,-4,-2,2
15:26:21.087139,1,0,-3,-3,-1,1,-4,-1
15:26:21.102132,2,-1,0,-4,-3,-1,0,-2
15:26:21.102132,-3,3,-2,0,3,-1,-2,1
15:26:21.117120,-2,-4,-1,-2,2,0,-2,-5
15:26:21.124116,0,-3,-2,-2,-5,-4,-3,0
15:26:21.139109,0,-1,1,8,5,0,-1,-1
15:26:21.146105,-2,-3,-2,-2,-15,-2,-1,-3
15:26:21.161094,0,1,1,-1,-1,-2,-1,0
15:26:21.162095,2,-1,-4,-3,-3,0,-1,0
15:26:21.184082,-1,-5,1,4,-1,-2,-2,-2
15:26:21.185080,-2,-2,-7,-32,-2,0,-2,0
15:26:21.199072,0,-1,-1,10,6,2,0,-2
15:26:21.206068,-4,-2,-3,-2,-7,-4,-3,-4
15:26:21.221056,0,-3,3,0,-3,-3,2,4
15:26:21.222057,-1,0,-2,-1,4,0,-3,0
15:26:21.244044,-1,1,-2,0,0,2,-1,2
15:26:21.245044,0,-1,-3,-3,-2,0,-3,0
15:26:21.259035,0,-2,7,4,-4,-1,0,-3
15:26:21.266032,-1,-1,-6,-2,5,2,1,-1
15:26:21.281022,-3,-3,-12,-27,-5,-6,-1,-1
15:26:21.282018,-2,1,-2,1,5,-2,-3,-4
15:26:21.296012,-7,0,-17,-22,-6,-6,-3,-3
15:26:21.311003,-5,-6,-2,10,1,-1,-2,-2
15:26:21.318998,2,0,12,5,-4,1,0,-1
15:26:21.325994,3,2,28,25,0,3,0,6
15:26:21.340984,-2,-7,-41,-17,10,0,0,1
15:26:21.341983,0,0,-7,-10,-7,2,0,0
15:26:21.356974,-5,-5,-7,8,-35,-9,-7,-4
15:26:21.363970,-5,-10,-16,-64,28,6,-1,-6
15:26:21.378961,4,0,-26,2,-41,-16,0,3
15:26:21.385973,3,10,72,22,-2,1,1,-3
15:26:21.400947,-1,-10,-46,5,-13,-4,2,3
15:26:21.401944,-4,-1,14,81,72,5,-2,-1
15:26:21.415937,-14,-21,-44,-41,75,-1,-6,-7
15:26:21.423932,10,1,-55,-126,-53,-17,5,6
15:26:21.438924,7,25,40,66,0,42,8,4
15:26:21.446918,7,1,24,-43,-60,8,5,9
15:26:21.460909,-4,-6,-57,-30,117,-38,-10,-4
15:26:21.461909,21,44,73,-28,127,109,22,13
15:26:21.476900,13,54,96,127,127,111,27,15
15:26:21.483896,-32,-95,-74,-128,-128,-100,-40,-19
15:26:21.506879,6,28,-57,3,127,65,18,1
15:26:21.506879,-14,-16,-53,127,127,-5,-15,-10
15:26:21.521874,0,13,127,127,127,17,-1,-7
15:26:21.521874,15,21,-50,-128,-128,-128,0,16
15:26:21.536862,-21,-27,-13,127,127,10,-17,-23
15:26:21.543858,8,-10,1,-128,127,37,10,16
15:26:21.558849,3,1,28,71,127,-46,-1,7
15:26:21.566844,34,74,35,102,127,21,13,10
15:26:21.581835,-35,-52,4,-46,18,-5,-16,-17
15:26:21.581835,13,14,-9,15,-27,-16,-2,5
15:26:21.596826,14,36,23,-2,-38,11,10,12
15:26:21.603820,-11,-21,4,127,-7,9,-4,-3
15:26:21.618811,8,21,6,-59,2,2,-2,-3
15:26:21.626808,21,50,16,-34,81,-11,-5,5
15:26:21.641796,-5,28,2,45,-128,-30,-4,-4
15:26:21.641796,-50,-73,-44,-21,-92,-28,-28,-29
15:26:21.663784,21,59,33,-99,-128,-84,2,-1
15:26:21.664783,0,-48,20,127,127,105,20,13
15:26:21.678771,31,82,98,87,-128,-66,1,6
15:26:21.693762,79,127,7,-128,-128,-126,-12,7
15:26:21.701763,-34,-36,40,127,127,127,9,-15
15:26:21.708753,-24,1,-26,-128,-128,-100,-26,-22
15:26:21.723747,-12,-128,-59,127,127,127,27,26
15:26:21.724746,-19,-101,-89,113,127,56,15,7
15:26:21.738737,42,76,-56,-128,-128,-128,-8,9
15:26:21.746732,-40,-72,-36,82,127,38,-6,-14
15:26:21.761723,-38,-128,-115,127,127,127,17,5
15:26:21.768719,23,42,64,-29,0,0,2,1
15:26:21.783710,11,45,-10,-128,127,-55,-6,-1
15:26:21.784709,22,44,3,-105,46,-128,-7,6
15:26:21.798701,-1,3,-12,-128,-128,-45,-6,-7
15:26:21.806696,-12,-38,-47,-93,10,13,6,5
15:26:21.821686,-7,6,44,5,-19,-81,-11,-11
15:26:21.828679,-21,-23,-28,-29,44,5,-9,-12
15:26:21.843673,-17,-28,-32,-128,-128,-80,-11,-10
15:26:21.844672,-17,-29,-16,127,-115,-33,-7,-9
15:26:21.858660,-21,-30,1,-23,127,31,-5,-9
15:26:21.866658,45,81,15,-107,-128,-80,1,13
15:26:21.881649,12,20,40,-83,127,2,3,3
15:26:21.888644,19,24,34,7,-9,6,5,9
15:26:21.911630,11,25,22,-117,103,26,-1,3
15:26:21.912626,-36,-69,-50,-128,49,39,-10,-18
15:26:21.918625,-20,-54,-98,-128,63,-22,-17,-6
15:26:21.926622,-23,-19,31,-17,109,67,-11,-19
15:26:21.941609,-16,-40,-26,100,-84,-29,3,1
15:26:21.948608,16,4,-30,15,-128,-60,4,14
15:26:21.963597,-43,-69,-58,-31,-118,-17,-16,-24
15:26:21.964597,-29,-66,-27,127,-53,19,2,-5
15:26:21.978589,1,-9,1,127,-128,-14,1,9
15:26:21.986584,35,53,24,113,127,96,17,15
15:26:22.001575,-6,-17,-20,30,-27,-43,-6,-3
15:26:22.008570,-18,-48,-34,98,127,23,-1,-8
15:26:22.023560,32,41,9,-128,127,-62,5,19
15:26:22.024557,7,8,-56,-128,-128,-62,-4,5
15:26:22.046547,-54,-100,-2,127,-29,41,-7,-19
15:26:22.047543,25,28,-20,13,-128,-128,-3,6
15:26:22.061537,-44,-44,82,-128,-69,127,-4,-27
15:26:22.068532,-1,-9,-5,127,127,127,17,2
15:26:22.083521,44,82,-4,34,127,-11,5,14
15:26:22.084521,-11,-16,-47,-128,-128,57,-4,-12
15:26:22.098512,21,31,-14,-128,-128,-60,1,11
15:26:22.106508,-9,-22,-9,-128,-128,-128,-4,2
15:26:22.121497,-16,-30,47,127,-2,37,-6,-5
15:26:22.129502,0,-2,8,-8,127,95,5,1
15:26:22.143483,-11,-3,14,39,109,22,3,-7
15:26:22.144483,9,-10,17,127,127,127,9,12
15:26:22.158477,18,40,15,-49,127,-82,2,7
15:26:22.166472,-14,-16,-38,25,-128,-128,-10,-10
15:26:22.181461,2,16,15,-128,-128,-32,-8,-3
15:26:22.189458,-5,-14,19,127,73,72,5,1
15:26:22.203449,-31,-57,5,76,-128,-60,-10,-14
15:26:22.204446,30,44,13,-70,-128,-95,7,17
15:26:22.218459,-27,-24,12,-68,-71,-37,-16,-20
15:26:22.226435,3,17,58,44,127,78,6,-1
15:26:22.241425,-16,-16,19,-3,-128,-59,-7,-7
15:26:22.249421,21,32,-32,-128,-66,-33,5,9
15:26:22.263412,-10,-19,-31,-36,127,-19,-6,-5
15:26:22.264409,-24,-14,38,127,127,127,-3,-16
15:26:22.279402,33,43,26,124,12,-39,7,18
15:26:22.286395,23,26,-40,-128,-128,-128,3,16
15:26:22.301388,-14,-20,-1,-128,-128,6,-8,-12
15:26:22.309383,-13,-10,18,46,-128,-16,-9,-13
15:26:22.331370,4,11,11,-43,9,-83,-4,0
15:26:22.332370,-4,-13,-54,-128,-128,-128,-10,-5
15:26:22.339366,-3,8,62,127,127,8,-4,-3
15:26:22.346360,1,-9,20,-13,-128,-58,2,4
15:26:22.361349,-25,-40,-65,-128,48,-20,-11,-13
15:26:22.369346,2,-4,-26,-28,-128,-18,-2,0
15:26:22.384334,7,-5,-40,10,127,-8,8,12
15:26:22.384334,19,29,21,-88,-128,-128,-11,9
15:26:22.399327,-25,-23,4,127,127,81,-1,-11
15:26:22.414316,31,12,36,127,127,127,31,27
15:26:22.421314,27,32,10,-86,-128,-72,8,14
15:26:22.429311,-14,-29,-64,-128,-128,-128,-20,-9
15:26:22.444297,-71,-111,-72,-28,-128,9,-30,-40
15:26:22.444297,38,46,-28,-39,116,-75,5,26
15:26:22.459290,-53,-81,12,127,127,127,-8,-20
15:26:22.466288,22,23,-14,-53,127,9,10,15
15:26:22.481273,-17,-16,-24,-128,-128,-26,-11,-17
15:26:22.489284,-19,-29,-29,29,-128,0,-2,-6
15:26:22.504263,7,17,50,35,-128,-128,-16,0
15:26:22.504263,-4,-13,-41,-128,-128,-67,-6,-5
15:26:22.519255,4,5,-6,-81,-128,-71,-7,-1
15:26:22.526249,-2,-7,-15,34,-1,11,-2,0
15:26:22.541239,-10,-7,29,103,2,56,-5,-11
15:26:22.549235,9,5,-8,-89,-128,-57,-2,6
15:26:22.564226,-20,-12,12,42,18,33,-7,-16
15:26:22.564226,-1,0,-4,-13,-23,20,-10,2
15:26:22.579216,12,3,-1,-9,-10,-5,-3,-3
15:26:22.586209,1,1,7,5,14,6,-4,1
15:26:22.601203,-1,0,-2,5,13,12,2,2
15:26:22.616190,2,4,-1,0,-1,-7,-28,-5
15:26:22.624189,3,-3,1,2,12,23,10,19
15:26:22.631184,-9,-1,2,-3,-4,-30,-73,-34
15:26:22.646175,11,3,1,-4,14,30,-128,64
15:26:22.654169,-41,-8,-15,-10,-19,-23,127,-66
15:26:22.661166,40,-11,-17,-19,-13,-10,14,84
15:26:22.669161,52,16,13,12,10,6,-128,117
15:26:22.684151,-41,-20,1,4,0,26,-26,-30
15:26:22.691146,58,-36,-9,3,9,-17,68,67
15:26:22.706135,125,45,24,23,24,44,64,9
15:26:22.707137,-56,-28,-28,-27,-13,67,-128,127
15:26:22.722128,-31,11,0,-1,-16,-25,127,-128
15:26:22.729123,-3,-23,9,13,7,14,-128,127
15:26:22.744114,-31,-6,-7,-39,-23,-39,40,-71
15:26:22.759102,18,17,11,16,22,26,-4,-19
15:26:22.766099,127,21,10,77,41,-15,-50,48
15:26:22.767099,36,1,-50,-128,-128,-57,-16,21
15:26:22.781088,-104,1,52,127,127,55,-25,-37
15:26:22.789086,-98,-56,-69,-115,-128,5,-4,35
15:26:22.804077,-31,4,5,127,-20,-67,-33,-40
15:26:22.812072,-61,10,15,127,85,53,9,-31
15:26:22.826061,65,-79,-37,-88,-78,-37,-8,31
15:26:22.827060,81,20,-55,-37,-128,-67,2,73
15:26:22.842053,2,-4,34,-24,20,35,5,16
15:26:22.849049,0,7,-34,-5,-128,2,3,14
15:26:22.864040,-27,-36,21,119,127,-14,-27,-45
15:26:22.872034,-24,33,7,-19,98,53,24,0
15:26:22.886024,28,36,-3,-26,30,42,62,59
15:26:22.887025,-44,-6,2,-128,-124,-31,-59,-73
15:26:22.902020,79,20,-5,6,9,-29,9,127
15:26:22.909012,-22,6,12,20,59,27,8,-28
15:26:22.924002,-11,1,44,5,127,11,-1,-21
15:26:22.938993,2,2,-26,79,127,8,7,-3
15:26:22.945989,-9,2,46,72,127,-14,-10,-4
15:26:22.946988,4,2,-2,13,-56,-10,-1,6
15:26:22.961978,-8,8,-3,-23,1,5,2,-4
15:26:22.968974,39,-12,14,16,-105,1,-5,-6
15:26:22.983965,-28,0,-2,-17,-128,1,5,-9
15:26:22.991961,-5,0,51,127,7,-6,-10,-14
15:26:23.005954,-14,-7,2,96,72,-24,-17,-26
15:26:23.006948,9,7,3,-128,-88,2,5,7
15:26:23.021941,-1,-5,-9,29,-16,2,3,0
15:26:23.028937,4,8,-3,-52,14,3,-3,-2
15:26:23.043928,4,-3,9,21,29,-3,0,1
15:26:23.051920,-17,1,-14,-25,-14,1,-4,-9
15:26:23.065914,7,-10,20,64,37,2,-10,-11
15:26:23.066911,8,5,-45,-81,57,3,-6,-1
15:26:23.081904,-5,-4,6,-41,-111,-33,-15,-6
15:26:23.088900,-2,-2,-4,38,51,4,0,-4
15:26:23.103891,-1,14,-8,-86,-84,2,5,8
15:26:23.111886,-7,-5,10,114,-28,1,0,-3
15:26:23.126873,4,4,7,36,7,-3,-5,2
15:26:23.126873,-22,-4,-5,-1,-8,-9,-12,-21
15:26:23.155858,36,5,-3,-23,-11,-5,-1,22
15:26:23.156857,-3,-1,20,19,-128,1,-1,-1
15:26:23.163851,-3,-5,-16,-116,-107,-10,-3,-8
15:26:23.171849,1,2,-11,-34,-54,1,4,2
15:26:23.186836,3,5,0,-111,-8,3,2,1
15:26:23.186836,-7,-3,-3,11,1,0,-5,-2
15:26:23.201830,-4,-1,6,29,0,-1,-2,-5
15:26:23.208828,7,2,19,25,22,0,-3,2
15:26:23.223815,4,2,8,31,86,11,4,0
15:26:23.231813,-8,-10,4,-24,10,-11,-6,-7
15:26:23.246799,-7,2,-3,-10,7,6,5,4
15:26:23.246799,1,2,19,-4,-89,-2,0,-1
15:26:23.261792,-4,-4,0,63,25,-2,-8,-6
15:26:23.268798,-4,3,4,13,0,-14,-5,-6
15:26:23.283776,2,-3,-4,-12,-9,-12,-6,2
15:26:23.291771,2,3,-1,-4,-3,0,-2,-6
15:26:23.306762,4,-3,-2,-10,18,10,17,14
15:26:23.306762,0,-2,-1,4,4,6,2,1
15:26:23.321756,0,-1,0,9,37,4,-1,0
15:26:23.328751,-4,-4,-7,-98,26,-8,-7,-6
15:26:23.343739,3,6,1,-55,18,-2,-1,-4
15:26:23.358733,-5,-1,0,10,1,-1,3,4
15:26:23.373723,-14,-9,-1,0,-3,2,-2,0
15:26:23.374723,0,-1,0,0,0,2,3,4
15:26:23.381718,-4,0,0,-2,0,1,-1,-2
15:26:23.388714,-1,1,1,2,41,8,2,0
15:26:23.403702,0,-4,-4,-54,-128,-19,-3,1
15:26:23.411700,-3,0,1,6,-17,4,-4,-5
15:26:23.433686,5,4,6,52,3,8,4,4
15:26:23.434686,-4,0,-5,-6,-22,-3,0,-1
15:26:23.448677,-1,-2,1,5,-8,0,-1,7
15:26:23.449676,-4,-2,2,-1,-4,4,-2,-6
15:26:23.463668,0,2,0,-2,-4,-5,2,-2
15:26:23.478655,-8,-6,-6,-12,-12,1,-2,0
15:26:23.486654,2,-2,-1,23,-24,-3,3,1
15:26:23.493649,0,-3,3,69,-62,-13,-5,-5
15:26:23.501644,-4,-1,-4,12,40,1,-1,-3
15:26:23.516635,1,2,-2,-4,3,0,-1,-2
15:26:23.523630,0,4,2,-1,-1,0,3,-2
15:26:23.531626,0,2,1,-4,-3,-1,-1,-1
15:26:23.546616,-8,-1,-2,-3,-3,-4,-1,-3
15:26:23.553619,-1,-1,1,-1,-1,-1,-1,1
15:26:23.561607,2,0,2,4,-1,-4,-4,-3
15:26:23.569603,-1,-3,-4,-32,-111,-9,0,-1
15:26:23.583592,-5,-4,-1,13,35,-2,-3,-6
15:26:23.591588,1,0,-4,-100,-31,-4,0,-2
15:26:23.606579,1,-2,2,16,-25,-2,-1,-3
15:26:23.614575,-2,-2,3,-7,-4,-1,1,0
15:26:23.636558,0,-1,-1,-9,-2,-3,-1,-1
15:26:23.637557,3,-3,1,-7,1,2,0,1
15:26:23.643572,-2,1,-1,-1,0,-5,1,1
15:26:23.651551,4,0,-1,-5,2,-3,-4,0
15:26:23.666542,-2,3,3,14,-124,-6,-1,1
15:26:23.674536,-5,-5,-5,-15,37,0,-3,-4
15:26:23.696523,2,0,-3,5,9,8,3,-2
15:26:23.697523,1,-1,1,2,-7,-1,2,0
15:26:23.711514,2,1,1,-2,-4,0,2,0
15:26:23.712513,3,2,-1,3,6,5,3,4
15:26:23.726505,-2,-1,-2,0,-3,-1,-2,-2
15:26:23.734499,1,-2,1,-2,2,1,3,-4
15:26:23.748491,-2,-3,-3,14,-20,0,0,-4
15:26:23.749488,4,3,2,6,4,3,4,5
15:26:23.764481,-1,-1,-2,-1,-68,-5,-3,-2
15:26:23.771476,-5,-7,-7,1,23,-5,-7,-5
15:26:23.786467,1,2,2,-1,1,-1,-4,-2
15:26:23.794463,10,-2,0,-3,-4,-4,-1,5
15:26:23.808455,-2,1,-2,0,1,4,-3,-1
15:26:23.809450,-2,3,0,5,-3,-4,-4,-2
15:26:23.824444,-3,-1,-2,-33,-4,1,1,1
15:26:23.831440,-1,-2,1,7,11,1,-1,1
15:26:23.846430,-1,2,-1,-15,-55,-2,0,1
15:26:23.854430,-2,0,2,7,12,2,-2,0
15:26:23.868417,3,0,0,-3,-34,-1,-1,0
15:26:23.869413,-3,-2,-2,-6,-38,-3,0,-1
15:26:23.884404,-1,-1,1,4,10,-1,1,-1
15:26:23.891402,-9,-1,-1,-2,4,-3,-2,-4
15:26:23.906392,-3,3,-5,-6,2,1,2,0
15:26:23.914388,2,1,0,-68,-58,-9,-1,0
15:26:23.928379,-5,-5,-2,9,10,-1,0,0
15:26:23.929376,-2,2,-1,4,31,3,3,-3
15:26:23.944369,0,-2,-1,-6,-10,-6,-3,0
15:26:23.959361,-8,-3,-3,3,6,4,-1,-3
15:26:23.966353,1,0,-2,-3,1,3,3,1
15:26:23.974351,6,1,-2,-1,-1,0,2,1
15:26:23.989339,-3,-3,-4,-16,-10,-5,-6,-4
15:26:23.989339,-4,-3,-2,7,-30,-3,-3,-4
15:26:24.004329,0,-2,0,-3,-3,0,0,0
15:26:24.011328,-3,-4,-3,-5,2,1,-1,-1
15:26:24.026319,0,-3,1,7,-9,-4,1,-2
15:26:24.034314,0,-1,-1,16,17,2,0,4
15:26:24.049301,-2,-2,-1,13,21,0,-6,-6
15:26:24.049301,-2,0,0,0,12,9,5,-1
15:26:24.064295,-1,-1,1,-2,0,-1,1,-1
15:26:24.071287,0,-2,5,9,3,1,2,1
15:26:24.086279,-1,4,1,-26,-39,-4,-1,1
15:26:24.094277,-2,-4,-4,3,-25,-7,-5,-5
15:26:24.109267,-2,0,2,-1,4,1,-2,-3
15:26:24.109267,-4,-1,-1,4,2,1,1,4
15:26:24.124255,1,-2,-1,0,1,5,3,2
15:26:24.132253,-5,-5,-3,-4,-11,-12,-6,-1
15:26:24.146244,-5,-4,-1,-1,11,-2,-2,2
15:26:24.154240,1,1,-4,-4,1,-4,-7,1
15:26:24.169231,-3,-2,-2,-5,5,-1,-1,-5
15:26:24.170230,0,4,-2,-5,-1,-1,3,1
15:26:24.184221,-1,-5,-4,30,15,1,-6,-6
15:26:24.191216,-5,0,2,5,-17,-6,-6,-3
15:26:24.206211,-1,0,0,-4,-3,-3,2,-2
15:26:24.214203,-1,-1,-3,-5,-4,0,0,-4
15:26:24.229193,-6,-1,-3,-2,-6,-1,0,-2
15:26:24.229193,-2,-5,-3,-2,-8,0,-2,-2
15:26:24.251176,0,0,1,5,-12,-2,-1,3
15:26:24.252178,-4,0,-2,-2,2,2,-3,1
15:26:24.266170,-9,-4,-3,-7,6,1,-8,-8
15:26:24.274165,0,-4,-1,-27,-56,-5,-1,3
15:26:24.296151,-1,-5,-3,9,13,-3,-2,-3
15:26:24.297151,3,1,0,0,0,1,0,3
15:26:24.304147,-1,0,-1,-2,1,-4,0,-2
15:26:24.311144,0,2,1,-9,-1,-2,-3,1
15:26:24.326138,-1,-2,-1,13,10,1,-1,3
15:26:24.334128,-1,-2,-1,2,1,-5,-2,0
15:26:24.349119,3,2,-2,-8,5,4,0,0
15:26:24.350115,-1,1,2,3,-21,-5,-4,-1
15:26:24.364109,1,2,2,2,13,6,3,3
15:26:24.371111,0,-1,0,23,13,1,-1,2
15:26:24.387093,-1,-1,1,5,-32,-3,-2,-2
15:26:24.394091,-1,-2,0,2,-22,-1,-1,-1
15:26:24.409081,0,1,-1,-2,5,2,-1,0
15:26:24.410078,-1,-1,0,-6,2,0,3,2
15:26:24.424072,0,0,-2,10,-2,1,-1,-1
15:26:24.431067,-5,-5,-2,-1,-4,-4,-6,-5
15:26:24.446062,0,-2,-1,1,3,4,-1,2
15:26:24.454053,1,2,0,-1,3,-1,0,3
15:26:24.469044,-2,-1,-2,-7,-10,0,1,-1
15:26:24.470043,-2,0,-1,21,8,1,-3,-3
15:26:24.484035,-1,2,-2,-1,32,5,0,-1
15:26:24.492029,-1,-1,-1,0,-14,-10,-1,-4
15:26:24.507021,-6,2,-1,7,13,4,1,-2
15:26:24.514016,3,-2,1,-2,-6,-7,0,2
15:26:24.529007,-3,1,-1,-4,-12,-3,1,1
15:26:24.536999,0,4,-1,-36,-6,1,2,-3
15:26:24.558989,-5,-4,-2,8,7,-2,-1,-3
15:26:24.559988,0,1,-1,-1,-1,2,0,0
15:26:24.566992,-1,-1,0,0,-3,-2,0,2
15:26:24.573979,2,2,1,-4,5,0,1,1
15:26:24.588970,-3,1,-1,3,15,4,0,1
15:26:24.596964,-4,-4,-1,-4,-7,-4,-2,-1
15:26:24.619948,-3,-2,1,6,25,-1,-5,-3
15:26:24.619948,3,-2,2,1,22,1,1,0
15:26:24.626946,-4,-4,-5,-38,-24,2,-1,2
15:26:24.633940,-1,-1,-1,16,12,0,-1,0
15:26:24.648931,-2,1,-1,14,4,-2,-5,0
15:26:24.655934,2,2,-3,-2,3,1,3,2
15:26:24.670949,5,-3,-1,3,-5,-2,-1,-1
15:26:24.671915,1,-1,-6,-11,8,-1,-4,-6
15:26:24.685931,0,-1,1,0,6,-2,-3,-2
15:26:24.693903,-5,-2,-4,-7,7,-1,-2,-3
15:26:24.708894,-4,1,1,4,2,3,0,0
15:26:24.715891,0,-1,-2,18,10,-4,-3,-4
15:26:24.731879,-3,-2,-2,4,8,0,-3,-5
15:26:24.731879,-1,-1,3,3,0,3,1,-1
15:26:24.746869,-2,-2,-1,-1,-6,-1,-1,-2
15:26:24.753868,0,-3,-1,-2,-5,1,2,0
15:26:24.768860,-4,-3,0,6,0,-2,-3,-5
15:26:24.776853,-1,4,0,0,0,2,0,2
15:26:24.791844,0,-1,-1,9,-18,3,-2,-3
15:26:24.791844,2,-2,1,-43,-3,-6,0,1
15:26:24.806835,-2,0,1,12,3,-1,-2,-3
15:26:24.821825,-2,-1,0,-5,-4,-3,2,-1
15:26:24.836813,-2,1,0,0,3,-1,0,-1
15:26:24.836813,-4,0,-1,6,-9,-3,-1,-2
15:26:24.851804,-6,-5,-2,-3,-17,1,-4,-6
15:26:24.851804,-4,-2,-2,-6,10,-2,-2,-2
15:26:24.866797,-3,1,-1,-6,6,1,3,0
15:26:24.881786,-1,2,-1,4,10,2,1,2
15:26:24.888781,4,1,-2,12,-14,3,4,2
15:26:24.896779,-5,-3,-3,-17,10,2,-2,-5
15:26:24.911770,0,-1,-4,2,-9,-4,-1,-1
15:26:24.912769,-3,-1,-2,4,-3,1,-2,2
15:26:24.926761,-2,1,2,4,3,-1,-2,-3
15:26:24.933755,-6,-6,-2,-7,-60,-3,1,-2
15:26:24.948747,-2,-2,-2,-1,7,-1,0,-4
15:26:24.956742,-4,1,0,-3,-11,-9,-5,-4
15:26:24.971733,0,0,-1,2,7,1,-5,-1
15:26:24.972729,-1,-2,-2,-3,0,-1,-3,-4
15:26:24.986723,2,1,-3,-38,-17,-3,0,0
15:26:24.993718,-3,-2,1,5,10,-3,1,-2
15:26:25.009709,-1,-1,-1,-6,-4,-1,-4,1
15:26:25.016704,-1,0,1,2,3,2,0,-1
15:26:25.031692,-1,0,-4,-1,-5,0,3,1
15:26:25.031692,2,2,-2,1,3,-6,-2,2
15:26:25.053680,0,-1,-1,2,-1,-2,-5,-1
15:26:25.054679,-2,1,-6,-1,3,1,1,-1
15:26:25.068677,3,0,1,-3,-4,-1,0,0
15:26:25.076667,1,-2,-1,2,4,-3,0,-4
15:26:25.091658,1,-4,1,0,-4,2,0,-5
15:26:25.091658,0,-1,3,20,17,-5,-1,1
15:26:25.106649,2,-2,-3,-12,-21,-8,-3,-3
15:26:25.113645,-1,0,3,0,-28,1,3,3
15:26:25.129634,-5,-2,-1,-2,6,0,-7,-5
15:26:25.144625,1,3,-3,-7,-2,-2,-2,0
15:26:25.151621,1,0,5,2,-11,1,-2,-2
15:26:25.152619,0,-1,1,0,2,-1,1,0
15:26:25.166611,0,-3,-3,-6,-12,-2,-1,-1
15:26:25.174606,0,2,2,20,14,1,0,-1
15:26:25.189597,-3,-3,-2,-2,-4,-3,-3,-5
15:26:25.196593,-3,1,-2,1,8,3,4,3
15:26:25.211580,-1,-1,0,0,-3,-5,-2,-3
15:26:25.212580,0,-3,0,1,7,3,0,-2
15:26:25.226574,2,-1,3,7,-26,-3,-3,0
15:26:25.234570,-1,-3,-5,0,9,-3,-4,-3
15:26:25.249560,-1,-1,-1,-5,-4,1,0,1
15:26:25.264550,1,-1,-1,-3,-6,3,0,-3
15:26:25.271547,-1,0,-1,-2,2,0,3,-3
15:26:25.272546,0,-1,2,3,3,5,2,6
15:26:25.286537,-4,1,-1,2,8,2,1,1
15:26:25.301528,-1,-4,-2,-4,-3,-1,-5,-1
15:26:25.316518,0,3,0,0,-5,-3,-2,-1
15:26:25.317518,-2,-1,-1,-37,-19,1,-1,-2
15:26:25.331506,1,-3,-2,7,0,-4,-1,-2
15:26:25.332509,-3,-3,-6,4,2,3,-1,-2
15:26:25.354492,-1,2,-3,-6,0,-2,-4,-2
15:26:25.354492,-1,-1,-1,-4,-4,-3,0,3
15:26:25.369483,-1,-1,-1,1,-1,-2,-1,-2
15:26:25.376482,0,-2,0,-1,9,7,2,0
15:26:25.391472,-5,-1,-3,-2,2,1,-1,0
15:26:25.392469,-2,-1,-2,-3,0,1,-1,0
15:26:25.406463,-2,-1,-2,-3,-1,0,-1,1
15:26:25.414457,0,-3,-1,1,4,2,5,4
15:26:25.429445,2,-1,2,9,-33,-5,0,0
15:26:25.436444,-4,-3,-6,-7,11,-1,-5,-2
15:26:25.459427,-1,1,3,18,5,3,2,2
15:26:25.459427,1,0,-3,-14,-14,0,0,-4
15:26:25.466425,3,3,0,-2,-3,-2,-3,-1
15:26:25.474418,0,-1,-3,-3,-3,2,1,-2
15:26:25.489408,-1,-3,-4,-1,-2,-1,-4,-1
15:26:25.496405,1,-1,-5,-1,0,2,-3,0
15:26:25.511397,-1,0,-1,0,0,-1,-2,-3
15:26:25.519392,2,-2,-4,2,5,-1,3,1
15:26:25.534390,-1,1,0,5,-1,-4,-3,-3
15:26:25.534390,-3,-1,-1,-2,5,2,-1,2
15:26:25.549374,0,-2,-3,-3,-3,1,1,-1
15:26:25.556369,-2,-2,-2,0,-7,1,-4,0
15:26:25.571357,-7,-1,-1,-2,2,-3,-5,-3
15:26:25.579355,-3,-2,-1,-4,-9,-1,0,-1
15:26:25.594344,-3,-1,-4,4,6,-1,0,-2
15:26:25.594344,-2,-1,-2,-2,1,2,2,-1
15:26:25.609337,0,-1,2,-2,-3,-1,-1,0
15:26:25.616329,-1,0,-3,-2,-4,1,0,-1
15:26:25.639318,1,-1,0,-1,-5,-3,0,-3
15:26:25.639318,-2,1,-1,1,0,2,1,0
15:26:25.654306,-3,-1,1,3,-1,1,1,0
15:26:25.654306,-1,-5,-6,0,7,2,0,0
15:26:25.669299,-1,0,0,-6,-2,-3,-2,0
15:26:25.676294,-1,0,-1,4,-13,-7,0,2
15:26:25.699282,-1,-3,0,-1,2,1,-1,-3
15:26:25.699282,-1,1,1,-3,-2,-3,2,0
15:26:25.714269,-3,-1,-3,-5,-8,-5,-2,-4
15:26:25.714269,-3,-3,3,1,5,-1,-1,-3
15:26:25.729263,1,-3,-1,2,-9,-3,0,-1
15:26:25.744253,-2,-2,-1,-1,-8,-3,0,-3
15:26:25.751246,6,1,3,5,6,7,5,5
15:26:25.759244,-2,0,0,-2,-3,-4,-1,-1
15:26:25.774239,-2,-3,-1,2,2,-3,-1,0
15:26:25.775233,-1,-2,-4,0,0,2,1,-5
15:26:25.789223,0,0,-4,-6,-3,-1,-3,-1
15:26:25.796219,2,3,2,2,4,1,1,2
15:26:25.812211,-1,-3,-3,8,-2,-4,3,-2
15:26:25.819207,-2,1,-3,-18,-10,-7,-3,-2
15:26:25.834195,1,-4,-4,2,8,-1,-2,-2
15:26:25.835195,-1,2,-3,-2,-5,-2,-1,-3
15:26:25.849188,2,1,-2,3,-7,-1,0,1
15:26:25.856184,-3,-3,-2,-5,-4,-1,-2,-3
15:26:25.871175,0,0,-1,-5,-10,-5,-2,-5
15:26:25.879169,1,2,0,-1,3,1,-1,-1
15:26:25.902152,-1,1,-1,-2,-2,0,0,-3
15:26:25.902152,1,1,-2,0,-1,2,1,1
15:26:25.909151,-2,1,-1,0,2,5,-1,-1
15:26:25.916147,-3,1,1,2,6,0,-1,1
15:26:25.931137,1,1,-1,-15,-1,0,0,-2
15:26:25.939132,-1,0,-2,24,11,4,3,-1
15:26:25.954120,-2,-1,-5,0,-5,1,-2,0
15:26:25.955123,-1,0,-1,-5,-3,0,-5,0
15:26:25.976110,-1,-1,-2,-2,-2,-3,0,-5
15:26:25.977107,-2,-1,-3,0,3,1,5,-1
15:26:25.992099,0,-2,0,1,-8,-1,2,2
15:26:25.999095,-3,-1,-2,-3,3,3,3,1
15:26:26.021081,3,0,1,2,4,0,-2,4
15:26:26.022080,-1,0,-6,-5,-2,3,2,2
15:26:26.029077,-1,2,0,-1,6,2,-2,0
15:26:26.037071,-2,0,1,2,-2,-1,1,0
15:26:26.052062,-1,-1,-3,-1,2,2,0,-2
15:26:26.059058,-1,-1,-2,1,-4,-4,3,0
15:26:26.074049,1,0,-2,-5,-4,-3,-2,1
15:26:26.075048,2,-2,-1,1,1,-1,0,-2
15:26:26.089037,-3,-1,0,2,-1,2,2,-3
15:26:26.097035,1,-1,-3,0,-6,1,-1,3
15:26:26.112025,1,1,0,4,2,3,2,1
15:26:26.119021,1,0,1,2,10,4,0,0
15:26:26.134012,-4,-5,-4,-1,-1,0,-1,-4
15:26:26.135011,-2,-3,-1,-1,-2,-5,0,3
15:26:26.149002,2,-2,-1,1,1,-3,-2,-2
15:26:26.156997,-1,-1,0,-1,-4,-1,-1,-1
15:26:26.171988,0,-1,0,-1,0,-1,-1,2
15:26:26.178982,-1,0,-1,-1,2,1,-2,-4
15:26:26.193974,-3,0,-3,0,-3,0,-1,-1
15:26:26.194974,5,0,3,5,-3,1,-1,-1
15:26:26.223956,-2,-3,-2,-3,1,-2,-4,0
15:26:26.224955,0,0,-1,0,-1,2,0,1
15:26:26.238946,-1,0,-2,-7,-4,-2,-2,0
15:26:26.239946,-2,2,3,2,1,0,-1,2
15:26:26.261930,-1,-4,-3,-2,0,-1,-1,0
15:26:26.261930,0,-1,-4,-1,-1,-1,-4,1
15:26:26.275923,-1,0,-1,-6,-7,-3,-1,-3
15:26:26.276920,-1,0,-1,-3,4,-1,-1,0
15:26:26.291914,-1,3,3,3,-12,2,-1,2
15:26:26.306905,-1,-3,-2,0,7,-1,0,1
15:26:26.313900,0,-1,-2,-1,-2,-2,1,-3
15:26:26.314900,-1,-3,1,0,-4,1,1,1
15:26:26.336884,0,0,0,-2,-5,0,-3,0
15:26:26.336884,-4,-4,0,-10,0,3,1,-1
15:26:26.351876,-1,2,-1,2,1,-3,-4,-2
15:26:26.358872,-4,-4,-3,-6,-9,-4,-2,-6
15:26:26.373863,-2,3,1,1,-5,-2,1,-1
15:26:26.374862,-1,0,2,2,-5,1,-2,3
15:26:26.396846,0,-2,1,-6,-3,-3,1,-4
15:26:26.396846,-2,0,-1,2,-1,2,-3,3
15:26:26.411839,-1,0,3,-1,0,1,1,0
15:26:26.418832,-1,-4,-2,0,0,0,-2,-2
15:26:26.433822,-3,-3,0,-1,-3,-4,-1,-2
15:26:26.441823,-3,-2,-2,4,3,-4,-4,-1
15:26:26.456809,-1,0,-1,-10,1,0,-4,-3
15:26:26.456809,1,1,0,3,-4,-3,1,2
15:26:26.471802,0,0,0,-6,3,1,-1,1
15:26:26.478797,0,0,-2,0,-2,-2,-2,0
15:26:26.501780,1,2,-3,-1,0,3,0,-1
15:26:26.501780,-7,-1,-2,-6,-1,0,-4,-5
15:26:26.516771,0,3,2,0,3,0,1,-2
15:26:26.516771,1,-1,0,0,2,0,-2,0
15:26:26.531765,-3,-2,1,8,18,-1,-2,0
15:26:26.538758,-1,-1,1,-10,-24,-4,-3,-2
15:26:26.553756,1,-1,1,0,3,-3,-1,-3
15:26:26.561747,-2,-3,1,2,2,2,-1,0
15:26:26.576737,-1,0,-2,-1,-3,0,1,-1
15:26:26.576737,-1,-3,-1,1,-2,-3,-2,-2
15:26:26.591728,-1,-3,-2,1,-2,2,-1,-1
15:26:26.598720,-1,-5,-3,3,1,-2,3,-2
15:26:26.613713,2,0,1,4,8,2,0,-3
15:26:26.621709,-1,-3,0,-7,-8,-5,-1,0
15:26:26.636700,0,1,0,0,0,-1,0,-2
15:26:26.636700,-3,-2,-2,-2,0,-4,-1,-1
15:26:26.651690,-1,2,1,2,-1,-3,0,0
15:26:26.658687,-3,-4,-3,-2,-1,-2,1,-1
15:26:26.673677,0,2,1,-1,-2,1,0,1
15:26:26.681672,2,1,8,12,6,-3,0,-1
15:26:26.696660,4,-1,0,-10,-10,-4,-1,1
15:26:26.697660,2,0,-1,-7,0,3,-2,1
15:26:26.711650,-1,-1,0,2,-8,0,-2,-3
15:26:26.733638,-3,-4,-3,-3,2,2,1,-5
15:26:26.734639,-1,0,1,-3,4,0,1,1
15:26:26.748630,-1,0,-2,2,-2,-2,-1,-1
15:26:26.764617,-1,1,-1,-3,-2,-1,0,-3
15:26:26.764617,-5,-3,0,-2,-8,1,-1,-2
15:26:26.771616,-1,-1,-1,-2,1,3,1,1
15:26:26.778614,-1,-2,-2,1,4,0,-1,-4
15:26:26.793608,1,0,0,-1,-2,0,-4,1
15:26:26.801597,-1,-3,-3,-1,-1,-6,-5,1
15:26:26.831582,-5,-4,-1,-2,-4,-2,-4,-1
15:26:26.832577,-3,0,-3,-5,-2,1,-3,0
15:26:26.832577,-1,0,-2,0,0,0,-1,-2
15:26:26.838582,-1,-1,-3,-10,1,0,2,-1
15:26:26.853565,-1,-1,0,-1,-1,1,-3,0
15:26:26.861560,6,0,1,-1,3,1,1,1
15:26:26.876551,-7,-2,-4,-4,-3,3,-3,-2
15:26:26.877547,1,-1,-4,-4,-1,-3,0,0
15:26:26.891542,-1,-2,0,-30,-16,-1,1,-1
15:26:26.899536,-3,-3,3,5,2,-6,0,-3
15:26:26.914526,-1,1,-2,-1,3,1,3,0
15:26:26.921523,0,1,1,2,-6,-4,-1,0
15:26:26.936514,-2,-2,1,-1,7,-1,0,-1
15:26:26.937510,-3,-3,2,1,-1,-7,-1,-2
15:26:26.951504,-1,0,-3,-6,0,1,1,2
15:26:26.958500,-1,-2,-2,0,0,-1,2,0
15:26:26.974491,-3,0,-2,-2,-7,-3,0,2
15:26:26.981486,0,1,0,3,-1,-4,2,-1
15:26:26.996474,-1,-5,-2,-1,0,-2,-1,-3
15:26:26.997473,-1,-4,-3,0,-3,-1,-2,2
15:26:27.011468,-3,1,2,4,8,1,2,0
15:26:27.019460,0,1,1,-4,-12,-1,-2,-2
15:26:27.041449,-2,0,2,-7,-13,-4,0,-1
15:26:27.042445,3,3,4,6,15,8,6,2
15:26:27.056439,2,1,-1,10,8,-2,-3,-1
15:26:27.057439,1,-2,-1,-13,-11,1,-1,1
15:26:27.071430,0,0,2,3,-3,-4,-1,0
15:26:27.086420,2,1,1,2,2,-3,-1,1
15:26:27.094414,0,-1,-3,-3,-4,0,-3,-4
15:26:27.101411,-1,-2,1,-3,0,-1,-1,2
15:26:27.116402,-1,-2,0,-1,1,1,-1,3
15:26:27.117399,-2,0,-3,1,0,-2,-2,-3
15:26:27.131390,-5,-1,-2,-6,-1,0,-2,-6
15:26:27.139388,0,-2,1,8,-10,-6,-2,-4
15:26:27.154380,-2,-1,-4,0,1,2,-4,-3
15:26:27.161373,-2,-1,1,-2,-7,-3,-3,-1
15:26:27.176365,1,-3,-6,1,-5,-2,0,-2
15:26:27.177365,-2,-3,-2,-4,0,-3,-1,0
15:26:27.191355,1,0,-2,-3,1,-1,-1,-2
15:26:27.199348,-1,-3,-1,0,-2,-5,-4,-5
15:26:27.214341,-1,-2,-1,-2,-7,0,1,-3
15:26:27.221337,-5,-2,-3,0,1,-2,-1,-3
15:26:27.244322,5,-2,-1,-2,3,-3,2,1
15:26:27.244322,1,0,-1,1,-4,-2,-1,1
15:26:27.259311,-1,0,-2,0,-6,-1,0,-2
15:26:27.259311,0,-3,0,0,1,-1,0,-2
15:26:27.274305,-2,-1,-4,-2,-4,-4,-1,2
15:26:27.281298,-1,-1,-1,1,3,1,-2,-4
15:26:27.296290,4,3,2,3,2,-2,2,5
15:26:27.297290,-2,-4,0,0,-2,0,1,0
15:26:27.311279,-1,-1,0,0,-10,-3,1,0
15:26:27.319276,-2,-2,2,0,-2,3,-2,-3
15:26:27.334268,-4,-1,-1,-1,-4,-2,0,-3
15:26:27.341261,-1,-2,-3,-1,-2,-1,-2,2
15:26:27.364249,0,-1,0,8,4,0,-1,0
15:26:27.364249,-3,-3,-3,-1,-4,-2,-4,-1
15:26:27.379236,0,0,-2,-4,-11,-1,1,-1
15:26:27.380238,2,-1,-1,-1,2,-4,-4,-1
15:26:27.394230,1,0,1,0,2,0,2,1
15:26:27.401225,0,2,0,2,2,3,1,-1
15:26:27.416216,-6,-5,-2,-3,-2,-1,-2,-1
15:26:27.424212,-1,-1,-1,-3,0,-1,-2,2
15:26:27.439202,-1,0,-2,-4,1,-2,-4,-2
15:26:27.440201,-1,-1,-2,-3,-3,1,0,0
15:26:27.461186,-3,-2,-5,1,0,-4,-3,1
15:26:27.462187,0,-1,-2,-1,5,4,-2,-3
15:26:27.476178,2,0,3,2,3,2,0,0
15:26:27.484175,0,0,-1,9,0,-5,-1,-2
15:26:27.499165,-2,-3,2,4,3,0,-1,1
15:26:27.500162,0,-1,-2,-3,-7,-2,0,-1
15:26:27.514155,1,0,-4,-3,-1,0,-1,0
15:26:27.521151,-1,-1,-2,-2,0,-3,0,-2
15:26:27.536142,-1,-1,1,-1,1,-2,1,3
15:26:27.544137,0,-3,-3,-3,1,-1,-1,-2
15:26:27.559128,4,1,1,0,-1,3,3,4
15:26:27.566123,-1,-3,-2,2,0,-4,-1,-1
15:26:27.581112,-3,-4,-1,-2,-1,-5,0,-4
15:26:27.582112,-3,0,0,1,-3,0,0,1
15:26:27.597101,-2,0,1,1,-11,-4,2,-3
15:26:27.604100,-2,-2,0,-1,-1,-1,-1,-1
15:26:27.619091,-2,0,0,2,-13,-3,-1,-1
15:26:27.620090,2,-1,0,-1,2,1,-1,-5
15:26:27.641076,-2,-1,-7,-4,-1,1,2,2
15:26:27.642076,6,1,-2,2,0,-2,3,4
15:26:27.656070,-4,-1,-5,-1,-5,-1,-2,-1
15:26:27.672056,2,1,1,-3,-3,-3,-2,0
15:26:27.679053,0,0,0,-1,4,-1,-1,0
15:26:27.686049,-1,-3,-1,-1,-2,-2,0,-2
15:26:27.694044,0,0,-2,3,1,-3,-1,-3
15:26:27.701039,-2,-5,-1,-2,4,0,-1,-3
15:26:27.716030,0,-1,0,0,-3,-3,2,2
15:26:27.724026,1,2,0,-1,-3,-4,0,0
15:26:27.739016,-3,-2,-1,2,-4,-1,1,1
15:26:27.740016,-2,-3,-4,0,2,3,-3,-3
15:26:27.754007,2,-1,-2,0,-3,-4,-6,-3
15:26:27.762002,-2,-2,-2,-1,0,-3,0,-3
15:26:27.776993,-2,0,1,-1,0,2,-1,3
15:26:27.783988,-1,-1,2,0,-1,-4,1,1
15:26:27.798979,-1,-1,1,3,5,4,2,0
15:26:27.799979,-5,-3,-5,-3,-4,-2,-2,-4
15:26:27.813969,3,-1,-1,1,-4,-3,-2,1
15:26:27.820969,-2,-1,0,-2,-4,0,-1,-1
15:26:27.843951,-3,-3,-3,1,-6,-5,-4,-3
15:26:27.844951,1,1,-3,2,-3,4,-1,0
15:26:27.858942,-1,0,2,-2,-3,-3,0,-3
15:26:27.859941,1,1,1,-4,1,2,2,-1
15:26:27.873933,0,0,-2,1,1,3,1,-2
15:26:27.881927,-4,1,-2,-4,-6,-4,-2,1
15:26:27.896918,-2,-1,-1,-5,-2,-1,1,0
15:26:27.903914,0,2,-1,5,-3,2,0,2
15:26:27.926900,0,-3,0,1,3,0,-1,-2
15:26:27.933895,-2,-1,-3,-5,0,1,-3,-1
15:26:27.934892,2,-2,0,0,-9,-5,-4,-1
15:26:27.941890,0,2,0,0,2,-1,2,1
15:26:27.956881,1,0,-2,-3,3,8,2,1
15:26:27.963877,-3,-1,-1,-2,10,3,-1,0
15:26:27.978868,-3,0,-1,-1,1,-4,-1,-3
15:26:27.979867,1,1,-2,-5,-13,-5,-1,0
15:26:27.993857,-3,-1,-2,-2,1,0,-3,0
15:26:28.001851,0,1,0,-1,0,2,-1,1
15:26:28.016844,0,0,0,5,-4,-3,-2,2
15:26:28.023838,-2,0,-1,5,-1,-1,-2,-1
15:26:28.038830,-2,0,-4,-8,-3,-2,-5,-2
15:26:28.039830,0,-2,-2,2,1,-3,1,0
15:26:28.053818,-4,-4,-2,0,2,-2,-2,-1
15:26:28.061816,1,-2,-4,-5,-2,-1,0,1
15:26:28.076807,1,-1,0,1,-3,-1,-2,-2
15:26:28.091797,1,0,-2,5,4,-3,-2,0
15:26:28.098793,1,-3,-1,2,-5,-3,-2,-1
15:26:28.099790,-5,-1,-5,-2,-1,0,-2,0
15:26:28.113782,2,-2,0,2,-2,0,-3,-2
15:26:28.121779,-1,-2,-4,-4,-2,-3,-6,-1
15:26:28.136770,-1,-3,-1,-3,-5,-3,-2,-2
15:26:28.143764,-1,1,0,-1,-4,1,-3,-1
15:26:28.166750,-2,-1,-1,1,-1,-2,-4,0
15:26:28.166750,-1,-3,-3,-6,-12,-1,-2,-3
15:26:28.181738,-3,-2,-2,0,3,5,2,0
15:26:28.181738,-4,-2,-2,-12,-7,-3,-5,-1
15:26:28.196732,-1,-1,-1,0,-2,0,-1,-3
15:26:28.203728,1,-1,3,-2,-2,2,-1,0
15:26:28.218716,-5,-3,-3,-3,1,-1,-2,-3
15:26:28.219715,0,0,1,3,-2,-1,0,-2
15:26:28.233711,-1,0,-2,-2,5,3,-1,-2
15:26:28.241705,-2,0,-1,0,1,0,-2,-1
15:26:28.256695,3,3,1,0,1,-1,2,-1
15:26:28.263688,0,0,-4,4,-15,-3,-1,1
15:26:28.279680,-1,0,-3,-24,-13,-6,0,0
15:26:28.279680,0,-2,-2,6,4,-4,-2,-1
15:26:28.301668,-1,-1,-2,-1,-1,-1,-1,0
15:26:28.301668,1,0,1,2,4,3,-2,0
15:26:28.316655,-3,-3,-1,-11,-2,1,-2,-3
15:26:28.323654,0,-4,-1,-1,-2,0,1,0
15:26:28.338644,2,0,-2,-6,-3,-2,0,2
15:26:28.353632,-2,-5,0,2,4,-1,-4,-2
15:26:28.361630,-2,0,0,-2,-9,-6,-2,0
15:26:28.362626,0,-1,-3,-5,-2,0,-3,-2
15:26:28.376620,3,0,-2,-1,2,0,-2,-1
15:26:28.383616,-3,-1,-2,-4,-12,-5,-3,-4
15:26:28.413596,-1,-1,-3,-1,-4,0,0,0
15:26:28.414596,2,-3,-1,-4,-2,1,0,-1
15:26:28.421593,2,-3,0,15,6,-3,-1,2
15:26:28.422591,1,0,-3,-10,-18,0,-2,-3
15:26:28.436583,-1,0,2,1,6,3,0,0
15:26:28.443579,1,2,3,13,7,-1,-2,-5
15:26:28.459570,-2,-3,-1,0,-6,-4,-1,-5
15:26:28.466565,0,-1,0,-1,3,-1,0,-1
15:26:28.481556,-3,1,-1,0,-10,-1,-2,1
15:26:28.482555,0,-2,0,-3,6,-2,0,-2
15:26:28.496543,-2,-1,-2,-5,1,0,-4,-1
15:26:28.504541,-1,1,1,-2,0,0,-2,1
15:26:28.519531,-3,-2,-2,-5,0,-3,-1,-1
15:26:28.526528,-1,0,-2,0,-3,0,0,-2
15:26:28.541518,3,2,2,6,2,-1,-1,2
15:26:28.542514,-2,1,-2,-2,5,-2,-2,-2
15:26:28.556509,0,-1,-1,0,-7,-1,-1,1
15:26:28.563514,-5,-1,1,2,6,1,3,0
15:26:28.579495,-4,-1,1,2,4,1,-3,-2
15:26:28.586490,3,0,1,4,9,6,1,2
15:26:28.601481,-3,-3,-3,0,-3,-1,0,-4
15:26:28.602478,2,1,1,-1,4,3,0,2
15:26:28.616470,-1,-2,-1,1,0,-3,-5,0
15:26:28.624464,-3,-4,-4,-1,-4,-3,-1,-4
15:26:28.639455,0,-4,0,0,-4,0,0,-3
15:26:28.646453,-1,1,0,0,-2,-1,0,-1
15:26:28.661444,-2,0,2,-1,1,0,1,-1
15:26:28.662441,-4,-3,0,0,-3,-4,-2,0
15:26:28.691425,4,1,0,-2,-1,-1,0,-1
15:26:28.692425,0,3,-4,1,5,-2,-2,2
15:26:28.699417,2,-2,-1,-1,-5,-2,0,0
15:26:28.706416,3,-1,1,3,9,-2,-1,0
15:26:28.721407,1,-1,1,-1,-4,-1,0,2
15:26:28.722407,-2,-3,0,-1,-2,-4,-2,0
15:26:28.736397,-2,1,-1,0,0,-2,-1,-1
15:26:28.751388,-2,0,-4,-1,-3,-4,1,0
15:26:28.766379,-2,-1,-2,-3,-4,-2,0,-1
15:26:28.767378,1,2,2,2,0,-2,2,1
15:26:28.781369,-1,0,-3,-2,1,0,-1,-2
15:26:28.782369,-6,-5,0,-3,-2,-6,0,-2
15:26:28.796358,-1,-3,-3,0,-1,1,0,0
15:26:28.804359,2,2,2,0,1,0,-2,1
15:26:28.819347,-1,-3,-2,-1,-2,0,-1,-3
15:26:28.826351,0,1,-2,0,9,8,0,1
15:26:28.841332,1,0,-5,-3,-2,0,-3,-4
15:26:28.842333,0,-2,-4,-1,-2,0,1,-1
15:26:28.856323,-1,1,-1,-1,-3,1,0,-1
15:26:28.864320,-1,-2,1,1,2,0,-2,-5
15:26:28.879309,-2,1,-1,2,-1,-1,-3,-2
15:26:28.886303,0,1,-5,0,-4,-1,-1,1
15:26:28.901295,-1,-1,2,2,3,1,0,0
15:26:28.909290,4,3,0,1,2,-2,0,0
15:26:28.924282,0,-1,-1,1,-5,-3,1,2
15:26:28.924282,-3,-1,-4,-1,-1,0,-3,-2
15:26:28.939271,0,-5,-1,-2,-4,-7,-4,-5
15:26:28.946267,0,3,-1,-1,-3,0,1,2
15:26:28.961256,-1,0,-1,-1,-1,2,-3,0
15:26:28.969253,-2,-1,-2,-1,-11,-1,1,1
15:26:28.976247,1,-1,-2,3,-1,1,0,-1
15:26:28.984244,-1,-1,0,3,1,-3,0,-2
15:26:28.999235,4,1,-5,-5,-2,2,2,3
15:26:29.014228,-2,-1,-1,-3,1,0,1,-4
15:26:29.029216,-2,-1,-2,1,2,-2,-4,-2
15:26:29.030214,0,1,1,-1,-5,-6,-3,-3
15:26:29.036208,0,0,0,-4,-5,-2,-2,-2
15:26:29.044207,-4,-7,1,-1,-2,-2,-1,-1
15:26:29.059196,-1,-1,-1,-3,0,-2,-1,-2
15:26:29.066190,1,-3,0,0,0,2,2,3
15:26:29.081180,-1,0,0,0,-1,0,-1,-2
15:26:29.089179,1,-1,-3,-1,-5,-2,-3,1
15:26:29.096174,0,-2,1,-3,-3,-1,-2,-3
15:26:29.104170,0,1,1,-5,1,-1,0,-1
15:26:29.119157,0,0,-1,1,3,3,-1,0
15:26:29.127156,-1,-1,-4,-2,-8,-3,-1,-3
15:26:29.141147,1,-1,0,-3,-1,2,0,3
15:26:29.149142,4,-1,0,2,4,2,1,-1
15:26:29.164132,-3,0,-3,-1,-1,-1,-4,-3
15:26:29.165128,-5,-2,-4,-1,-10,0,-4,-6
15:26:29.186117,-1,-1,-1,2,1,1,3,1
15:26:29.187118,-3,0,-2,-4,0,-2,-5,-1
15:26:29.201109,-2,0,-1,1,-2,-4,-2,-3
15:26:29.209104,-1,0,0,1,1,-1,-3,-3
15:26:29.216100,0,1,-3,-4,-8,1,1,2
15:26:29.224095,-1,0,-4,1,-2,-1,-2,-1
15:26:29.239086,1,0,-4,-3,-3,-4,-2,-2
15:26:29.247079,-1,1,-1,-1,-1,2,1,2
15:26:29.262070,-2,-4,0,0,-1,-1,0,0
15:26:29.277059,2,-2,0,-2,-3,0,2,-1
15:26:29.284058,0,0,0,2,4,0,-3,1
15:26:29.285054,0,2,-4,1,2,-1,-2,0
15:26:29.306044,1,-1,1,7,-8,2,2,4
15:26:29.307043,0,-3,-1,-4,5,0,-5,-3
15:26:29.322033,1,0,-3,-3,-3,3,2,1
15:26:29.336026,-3,-4,-2,-1,1,-1,-2,-1
15:26:29.344021,-3,-2,-3,-4,-3,-5,-1,-1
15:26:29.345018,-1,0,-1,3,-1,-2,-3,-1
15:26:29.359011,-2,-2,1,-4,-2,-3,0,-3
15:26:29.367005,2,-3,0,1,4,5,-1,0
15:26:29.381994,1,-3,-1,3,-3,1,2,0
15:26:29.396987,-2,-1,-1,-1,0,0,-3,2
15:26:29.403984,-2,3,-2,1,-6,-3,-2,-1
15:26:29.404983,-6,-4,-3,-1,5,-3,0,-2
15:26:29.418974,-4,-1,-2,0,2,-1,-2,-3
15:26:29.425969,-2,-1,-4,-3,-3,0,1,2
15:26:29.441957,-1,0,0,2,-2,0,0,-2
15:26:29.448956,-3,-1,-3,-3,-3,-1,-3,-1
15:26:29.463946,-1,-4,0,-1,-3,-2,-1,1
15:26:29.464946,-4,-2,1,-1,-4,-1,-3,-2
15:26:29.478937,0,-1,-1,0,-2,0,2,1
15:26:29.493928,1,-2,-1,1,-7,-5,-3,0
15:26:29.501920,-3,0,-2,-2,-1,-3,-1,0
15:26:29.508918,1,1,1,-3,-1,0,-2,-3
15:26:29.523909,-1,2,0,-6,-5,1,2,-2
15:26:29.524909,-1,0,-5,-3,-5,-3,-2,-6
15:26:29.538899,-3,-1,-3,-3,-2,0,-3,1
15:26:29.546894,1,0,0,2,-1,-5,-3,-2
15:26:29.561882,0,-2,-5,-3,-2,-1,1,1
15:26:29.568881,0,1,-2,-3,-2,-3,-2,0
15:26:29.598863,-1,1,-1,-1,-7,2,-2,-1
15:26:29.599859,-1,-4,0,1,2,-4,-3,0
15:26:29.600859,-1,1,-3,2,5,2,-1,-6
15:26:29.613853,-2,1,0,1,-4,-5,-2,0
15:26:29.621845,-2,-1,-2,1,-2,4,1,0
15:26:29.628843,-1,-2,0,2,-2,-3,-2,-3
15:26:29.643835,1,-2,0,-2,0,0,-4,-1
15:26:29.644834,-1,-1,0,2,-2,-2,0,0
15:26:29.658824,3,-2,-3,0,3,-1,1,-1
15:26:29.666817,1,1,1,0,-4,-1,0,-1
15:26:29.681808,0,0,-3,-1,-7,-2,-3,1
15:26:29.688806,0,-3,-4,1,2,-3,-4,-1
15:26:29.703798,-1,-1,1,0,0,0,-3,1
15:26:29.704797,-2,-1,-4,-1,-3,-2,1,-1
15:26:29.718785,-2,0,1,-3,-3,-3,-2,-2
15:26:29.726784,-1,0,0,-4,-4,0,-1,-1
15:26:29.741771,-5,-2,-3,-2,-1,0,-2,-3
15:26:29.748768,0,-3,-2,-1,-2,-2,0,-5
