timestamp,emg1,emg2,emg3,emg4,emg5,emg6,emg7,emg8
18:52:14.408157,0,1,-1,0,2,0,3,2
18:52:14.409155,-1,-2,-5,2,0,0,-1,4
18:52:14.434140,-2,0,0,-2,-1,1,-1,-6
18:52:14.435138,-3,2,-1,0,-1,-3,-2,0
18:52:14.449128,-2,-1,-1,-1,3,0,0,0
18:52:14.450129,-4,-5,-4,0,2,-2,-2,-1
18:52:14.464120,0,1,0,0,0,0,1,0
18:52:14.465120,16,9,3,2,0,0,-14,-6
18:52:14.487106,-4,-4,-2,-1,-4,-1,3,1
18:52:14.487106,-3,-3,2,-1,1,-2,-1,-2
18:52:14.502095,0,0,-1,3,-1,1,2,1
18:52:14.509094,-2,0,0,-4,-1,-1,0,2
18:52:14.524085,-5,0,-2,-4,3,-4,-3,1
18:52:14.525081,-6,-6,-1,-2,1,-1,-2,-3
18:52:14.547084,-6,0,1,3,2,0,-2,-6
18:52:14.547084,-5,0,0,-2,-3,0,-3,-7
18:52:14.569057,0,0,0,1,1,4,1,0
18:52:14.570053,-5,-2,-1,0,1,1,-1,0
18:52:14.584047,4,1,0,2,0,-1,-5,4
18:52:14.585045,-7,-3,-3,0,-4,-1,0,-1
18:52:14.607032,0,-2,-3,-3,2,-2,0,0
18:52:14.608031,-1,-2,0,-1,-2,0,-4,-3
18:52:14.629022,-3,0,-3,1,-3,-1,4,-4
18:52:14.630016,0,-1,0,-1,-1,0,-10,-1
18:52:14.645009,1,0,-1,1,-3,-1,2,-2
18:52:14.645009,-4,-2,-1,-1,-2,-3,1,3
18:52:14.666996,-1,-4,-1,-3,2,0,-14,-2
18:52:14.667994,3,-1,1,0,-1,2,2,-1
18:52:14.689979,-4,-4,-1,0,-1,-2,-3,0
18:52:14.689979,-4,-4,-3,-3,-4,-3,2,2
18:52:14.704970,4,0,2,0,2,-2,-2,-1
18:52:14.704970,-2,0,3,-1,-3,-2,-3,-5
18:52:14.726959,0,-1,-2,0,-3,0,-1,-1
18:52:14.727958,1,-2,-1,1,2,-1,-2,-4
18:52:14.749944,-2,-3,1,0,-1,-1,2,1
18:52:14.750944,0,1,-1,-3,0,-6,-3,-3
18:52:14.764936,6,3,-3,-1,-3,-2,7,-3
18:52:14.764936,-3,0,0,1,2,-1,-11,-2
18:52:14.786921,1,-2,5,3,2,1,3,1
18:52:14.787918,4,-2,1,-1,-1,0,-1,2
18:52:14.809908,2,1,0,0,-1,-2,-1,-3
18:52:14.809908,-2,2,0,0,1,-1,-12,-1
18:52:14.824895,3,3,1,2,3,-2,3,0
18:52:14.825897,-5,-4,-1,-3,-1,-3,-1,-5
18:52:14.846883,-1,1,-1,2,4,1,-1,2
18:52:14.847881,-3,-3,1,-3,-1,-2,0,-1
18:52:14.869871,6,3,-2,-3,-1,-2,1,-2
18:52:14.869871,1,-2,-3,0,-2,1,2,1
18:52:14.884862,-5,0,1,-1,3,-1,1,-2
18:52:14.885861,-2,-3,1,0,-1,3,2,-3
18:52:14.906844,2,2,1,1,0,-1,-1,1
18:52:14.907844,-4,-4,-1,-1,0,0,9,0
18:52:14.929833,-1,-4,-4,-3,-1,-3,0,-6
18:52:14.929833,-4,-3,-1,-2,-3,-2,0,0
18:52:14.944822,-4,1,0,2,2,-3,1,-2
18:52:14.944822,1,0,-1,1,-4,2,-9,3
18:52:14.967808,-1,0,-1,-1,0,-2,-1,3
18:52:14.967808,-2,-2,-3,-3,-3,0,-1,-3
18:52:14.989797,2,0,0,-2,0,1,0,-1
18:52:14.990793,5,-1,0,-1,0,-3,-2,-1
18:52:15.004787,-1,-2,1,0,2,0,-3,1
18:52:15.005787,2,1,-4,-3,-2,0,-2,-1
18:52:15.026771,-3,-3,-2,-1,-2,-1,-4,-2
18:52:15.027773,-3,-1,1,1,1,1,1,-1
18:52:15.049757,0,-2,-3,2,0,1,-5,0
18:52:15.050757,-1,-1,-1,-1,-4,-1,1,-6
18:52:15.065748,-5,-2,-2,-1,-4,0,-1,-3
18:52:15.065748,-4,-2,-1,-1,-3,-4,-3,-4
18:52:15.087733,1,0,1,1,-1,3,5,0
18:52:15.087733,5,-2,-2,-1,-3,-3,-1,1
18:52:15.109722,-3,-2,-4,1,1,-1,0,2
18:52:15.110719,0,0,0,-3,-1,-2,0,-1
18:52:15.124713,-1,-3,-3,-5,-5,-2,-1,-4
18:52:15.125712,-2,-1,0,-3,0,0,0,1
18:52:15.147697,-5,-2,-2,-2,3,3,-7,1
18:52:15.148697,-1,-4,-2,2,-2,-1,1,-2
18:52:15.169685,-1,-5,0,0,-1,-2,1,1
18:52:15.170686,2,0,-1,-2,0,1,-1,3
18:52:15.184676,-2,1,1,1,-3,-1,2,-1
18:52:15.185672,11,7,0,-1,-1,-3,-1,3
18:52:15.207658,-1,-4,-1,0,-1,-1,-2,1
18:52:15.207658,-1,2,1,-2,1,0,-3,2
18:52:15.230645,2,0,0,-1,0,2,0,-1
18:52:15.230645,-2,0,-1,-1,-1,-4,-5,-5
18:52:15.244638,6,4,-1,1,3,0,-4,0
18:52:15.245634,-2,-2,-4,-6,-3,-3,-3,-3
18:52:15.267621,3,-1,1,3,-1,0,2,1
18:52:15.267621,-6,-5,0,-2,-1,0,-2,-2
18:52:15.289607,0,-1,-2,-1,-1,-1,-2,-3
18:52:15.290607,-1,-2,-2,1,-1,0,-1,-5
18:52:15.304601,-1,-1,-3,0,2,1,-4,-1
18:52:15.305598,1,3,0,0,-3,-4,-5,-1
18:52:15.327585,-4,-3,-3,-1,-1,-2,-5,-1
18:52:15.327585,-7,-3,-2,0,-3,-3,-5,-5
18:52:15.349571,-7,-6,0,0,-1,3,1,-11
18:52:15.350571,2,0,0,-4,-4,-2,2,0
18:52:15.365561,2,2,-1,1,-1,-1,-4,1
18:52:15.365561,-1,1,0,-4,-2,0,-1,-2
18:52:15.387547,-2,-4,-1,-3,1,-4,-2,0
18:52:15.387547,-4,-3,1,-1,0,-2,-3,-4
18:52:15.409536,4,1,-1,1,-1,3,1,0
18:52:15.410536,6,3,-1,-1,-3,-5,0,2
18:52:15.424524,-1,-2,-4,-3,-2,-5,0,-3
18:52:15.425523,4,2,2,0,-2,3,6,9
18:52:15.447510,-1,-2,-2,-1,-1,-1,-1,-6
18:52:15.448510,6,1,0,0,1,4,6,2
18:52:15.469499,1,1,-2,-4,-1,4,2,3
18:52:15.470497,-3,-2,-2,1,0,-1,-3,-4
18:52:15.485486,7,0,1,-1,1,1,1,5
18:52:15.492485,-7,-7,1,-1,2,-1,-1,-6
18:52:15.507472,-5,-5,-3,-2,-3,-1,0,2
18:52:15.507472,-3,-1,0,-1,-4,-4,-3,-6
18:52:15.537453,-5,-3,2,-1,0,0,0,-1
18:52:15.537453,-1,0,1,4,3,3,4,2
18:52:15.552447,1,-2,-2,0,0,0,-3,-3
18:52:15.552447,-4,-4,-2,-1,-1,0,-11,-5
18:52:15.574434,-4,-2,-3,0,-5,-4,-11,2
18:52:15.575430,-1,-3,-1,-2,1,-1,2,-3
18:52:15.589424,-6,-5,-4,-3,-1,-3,0,-5
18:52:15.590421,6,0,-3,1,-2,2,0,1
18:52:15.612407,-4,-4,-4,0,-1,2,-3,1
18:52:15.612407,-2,-3,-2,0,-2,1,1,1
18:52:15.627401,1,-1,-2,1,0,-4,-4,-3
18:52:15.627401,-1,-2,-4,-3,-4,1,3,1
18:52:15.649387,4,0,1,-3,-2,0,-3,3
18:52:15.650385,-2,1,2,2,1,-2,-2,2
18:52:15.665375,-2,2,-2,0,1,0,0,1
18:52:15.672373,1,-4,-2,-3,-4,-4,-1,-2
18:52:15.687364,-2,-4,-3,-4,-3,-1,-4,-5
18:52:15.688360,-11,-6,-3,0,-1,0,1,-3
18:52:15.710346,-5,-3,-5,0,0,-2,-2,-3
18:52:15.710346,-4,1,-1,0,1,1,4,9
18:52:15.732333,-1,-3,-1,-1,-2,1,-13,-3
18:52:15.733334,-5,-2,1,1,3,-1,4,-5
18:52:15.748324,-3,2,-1,-1,1,1,-1,-10
18:52:15.749326,-5,-2,1,3,1,0,0,2
18:52:15.770310,-2,-5,-3,-1,-5,-1,-1,-4
18:52:15.770310,2,0,0,0,1,0,1,0
18:52:15.792296,-4,-1,1,0,2,0,2,1
18:52:15.793298,0,3,0,-1,-1,2,2,-3
18:52:15.807290,5,-4,0,-4,-2,1,-1,2
18:52:15.808288,2,0,0,-3,-1,-1,-2,-2
18:52:15.830272,-6,1,-3,0,-1,1,2,-2
18:52:15.830272,1,-1,0,1,0,-1,-4,-4
18:52:15.852261,1,2,1,0,0,-2,0,3
18:52:15.853262,-2,-4,1,-1,-2,1,-17,-4
18:52:15.867252,2,2,0,-2,1,2,4,2
18:52:15.868248,2,3,-7,0,-3,-3,3,0
18:52:15.890234,-2,-2,-1,0,0,3,4,5
18:52:15.890234,-4,1,1,1,0,-2,0,0
18:52:15.912224,-2,-2,-3,1,0,-1,-2,-1
18:52:15.913222,1,-1,-3,-1,-2,-2,20,6
18:52:15.927215,4,1,0,0,-1,-2,-2,-2
18:52:15.928214,-6,-2,-1,0,-3,0,1,-3
18:52:15.949200,1,0,2,1,-1,2,8,4
18:52:15.950199,1,-2,-1,-3,-4,-3,0,-2
18:52:15.972187,-2,-1,-2,-1,-3,-2,0,0
18:52:15.973183,6,3,-2,-5,2,-3,0,-3
18:52:15.987178,-6,-4,-1,-2,-2,-2,-3,-1
18:52:15.988177,2,0,0,1,-1,0,2,-1
18:52:16.010162,-3,-1,-3,-2,-3,0,-1,0
18:52:16.010162,-1,-1,0,-2,-1,0,-4,-7
18:52:16.032150,-2,2,-1,-3,-2,2,-2,2
18:52:16.033147,0,3,-3,-2,0,0,-1,-5
18:52:16.047140,-2,-3,-2,-2,-2,-3,-1,1
18:52:16.055133,-4,-2,-2,-4,-1,-1,1,-2
18:52:16.070123,-2,-4,-2,-2,-1,0,-5,-3
18:52:16.070123,2,0,-1,0,1,-3,-1,-1
18:52:16.092113,-1,-1,-2,-2,-1,-2,-3,-4
18:52:16.093109,-3,-1,-2,-1,-5,-1,0,-5
18:52:16.115096,1,2,1,0,0,-2,0,3
18:52:16.115096,-3,0,-1,2,-2,0,-6,1
18:52:16.130086,2,3,1,3,4,2,9,6
18:52:16.130086,-2,-2,-1,0,0,-3,-3,-2
18:52:16.152073,-1,0,1,-1,-1,0,19,3
18:52:16.153073,2,1,0,1,1,-3,-6,-2
18:52:16.168062,-1,-3,0,-2,-1,-1,0,-1
18:52:16.175061,0,-2,0,1,-2,-2,-2,0
18:52:16.190049,-5,-2,-3,1,1,0,0,-5
18:52:16.190049,-3,0,-3,-3,-2,-2,0,-3
18:52:16.212036,0,-1,0,-2,-1,0,3,3
18:52:16.213035,-3,-4,-2,1,0,0,0,2
18:52:16.227029,-8,-7,-1,-2,-5,-9,-8,-4
18:52:16.235024,-1,-1,-2,-2,-3,-2,-7,-6
18:52:16.250012,-1,-3,-1,-2,-1,0,0,-1
18:52:16.251014,-1,-1,-3,0,1,-2,-1,1
18:52:16.272001,4,0,-2,-1,-1,1,-5,0
18:52:16.272998,-2,-4,-4,-4,-1,0,0,-3
18:52:16.287992,5,2,2,0,-1,-2,-6,1
18:52:16.294987,-3,2,-5,0,-1,-4,0,-2
18:52:16.309981,-5,-2,1,2,-1,-6,1,-4
18:52:16.309981,2,0,-1,0,2,-3,5,-5
18:52:16.331964,-1,1,0,-2,0,0,8,-2
18:52:16.332960,2,-1,-3,0,1,3,2,-2
18:52:16.347952,-4,-3,0,-4,-2,-6,-7,-13
18:52:16.354946,3,0,2,-3,-2,-2,0,4
18:52:16.369942,-2,-1,-2,0,-1,-4,-3,2
18:52:16.370940,-3,-3,-2,-1,-1,-4,-2,-3
18:52:16.391924,-1,-1,2,1,0,-3,0,2
18:52:16.392926,3,-2,2,0,0,-2,-1,1
18:52:16.407917,-1,-2,-4,0,-3,-3,-5,-2
18:52:16.414913,-2,-4,-3,-4,1,-1,1,-1
18:52:16.429903,4,4,0,-3,-4,-4,-4,-1
18:52:16.429903,3,3,1,-2,-1,5,7,4
18:52:16.451888,-3,-3,-2,-4,0,0,2,-1
18:52:16.452886,-1,-1,-3,-2,0,-1,-4,0
18:52:16.467877,3,-3,-1,-3,0,-1,1,4
18:52:16.474875,1,-2,-2,-1,1,2,-4,-1
18:52:16.489866,1,-2,0,0,-4,2,3,2
18:52:16.489866,1,-2,1,0,3,1,-1,4
18:52:16.511850,-1,0,-5,-5,-4,-1,-2,-8
18:52:16.512848,-6,-1,1,3,1,3,0,-3
18:52:16.534838,-1,1,1,-1,-2,0,-4,-1
18:52:16.535836,5,2,-3,-2,-4,0,0,1
18:52:16.549828,1,-2,-3,-1,0,-2,-2,1
18:52:16.550825,-3,-3,-1,-2,-2,-2,-2,-2
18:52:16.571813,-3,-3,-1,-3,-3,-6,-1,-2
18:52:16.572812,-2,-1,-2,-2,-1,2,0,-1
18:52:16.587802,2,2,1,2,7,1,-2,1
18:52:16.594801,-1,-1,-6,-2,-2,-2,1,0
18:52:16.609792,-8,-8,-5,-3,-6,-3,0,-1
18:52:16.610789,1,2,3,3,0,0,0,1
18:52:16.639773,-3,-1,-4,-3,-1,0,-4,0
18:52:16.640770,-5,0,1,0,0,0,0,-5
18:52:16.654764,-1,-2,-2,-2,0,0,0,0
18:52:16.655763,-3,3,1,2,2,0,-1,-3
18:52:16.669754,3,5,2,4,6,1,1,0
18:52:16.670750,-1,-4,0,-5,-4,-4,-3,-3
18:52:16.692737,-1,-2,-3,-2,0,0,-3,-4
18:52:16.692737,-7,-1,-4,-2,-1,-2,-5,-3
18:52:16.714725,-4,-2,-2,-3,-5,-5,-4,-5
18:52:16.715725,-1,-2,-2,-3,-1,0,2,0
18:52:16.729717,5,2,-3,-4,-3,-1,-2,-2
18:52:16.730716,3,4,0,-4,-1,-2,-2,0
18:52:16.752701,0,-4,-3,-1,2,-2,0,-1
18:52:16.752701,-2,0,-1,2,-3,1,1,2
18:52:16.774689,-4,1,-1,1,-2,-4,0,2
18:52:16.775689,-2,-3,0,7,-1,-1,-1,0
18:52:16.789680,-7,-1,3,0,-5,-1,-2,-3
18:52:16.790679,3,3,0,2,4,-3,-1,-1
18:52:16.812663,-1,-2,-2,-1,-3,2,-3,1
18:52:16.812663,-1,-5,-4,-3,0,-1,1,-1
18:52:16.842644,-2,-2,-1,1,-2,-1,-1,-1
18:52:16.842644,-2,-4,0,-3,-1,-1,-1,1
18:52:16.849643,-2,2,-3,3,0,-1,1,0
18:52:16.850642,-5,-4,-3,-3,-4,-4,7,-4
18:52:16.872625,-7,-5,-3,-3,1,-1,-3,-7
18:52:16.872625,13,2,1,0,1,4,15,9
18:52:16.894615,3,0,-3,1,2,3,9,10
18:52:16.895611,-1,-2,0,1,-2,-1,-3,0
18:52:16.909604,1,0,2,0,0,-3,3,6
18:52:16.917601,-4,-4,-2,-2,-6,-3,-3,-3
18:52:16.932589,-1,-1,-3,-2,3,0,-2,-2
18:52:16.933591,-3,-4,-1,-3,-3,1,1,-2
18:52:16.954578,6,2,0,1,-3,-1,-11,1
18:52:16.955575,-2,-1,-1,-4,-3,-3,5,-1
18:52:16.969568,-1,-2,-3,-2,1,-2,3,0
18:52:16.977562,0,-2,-1,-1,-4,-3,-1,-1
18:52:16.992551,0,0,-3,-1,-1,1,2,2
18:52:16.992551,7,5,-1,-1,-4,2,2,-5
18:52:17.014537,1,3,2,0,-2,-1,-1,4
18:52:17.015537,2,-3,-3,-5,-1,-2,-2,0
18:52:17.029529,3,0,0,-1,1,-3,-1,2
18:52:17.037526,2,0,-2,-3,-2,-3,-2,-2
18:52:17.052514,0,2,0,-1,-1,0,0,1
18:52:17.053516,-1,-3,0,-3,-4,-4,-4,0
18:52:17.075500,-3,0,0,1,2,-1,-3,-1
18:52:17.075500,0,2,4,0,0,-1,0,-4
18:52:17.089492,-3,1,-7,-1,2,-1,-1,-2
18:52:17.097491,-1,-1,1,-3,-4,2,0,0
18:52:17.112479,0,2,1,-16,-1,-1,0,-1
18:52:17.112479,1,0,0,11,8,3,3,1
18:52:17.134466,-3,-1,-1,3,-10,3,-3,-4
18:52:17.135465,2,1,-3,-2,11,-4,0,-1
18:52:17.149455,1,-2,-2,-7,1,1,-1,-3
18:52:17.157449,4,1,3,-5,-5,-1,1,1
18:52:17.172442,-2,4,-1,6,1,-1,2,4
18:52:17.172442,2,-3,-1,-17,-8,-4,0,2
18:52:17.194426,-1,2,8,64,28,3,1,-2
18:52:17.195428,0,-1,22,5,11,4,0,0
18:52:17.210419,5,6,13,87,13,4,4,5
18:52:17.217415,2,0,-5,10,-1,-9,-3,8
18:52:17.232406,4,2,2,-33,-17,-4,2,0
18:52:17.233402,1,2,25,44,49,6,3,-1
18:52:17.254389,7,7,3,62,-21,35,8,8
18:52:17.255391,-9,-9,-42,-128,31,-30,-8,-12
18:52:17.270379,-5,8,0,-77,92,54,-1,-12
18:52:17.277378,8,14,20,108,127,25,4,3
18:52:17.292368,-1,13,27,127,-24,0,-4,1
18:52:17.292368,10,2,-32,-128,-128,-128,4,0
18:52:17.315351,-30,-39,72,127,127,1,-16,-18
18:52:17.315351,29,44,-70,-128,-128,-128,13,18
18:52:17.330342,-16,-42,6,64,127,-12,-14,-1
18:52:17.337340,-20,4,13,-128,127,30,-16,-15
18:52:17.352331,-18,-10,26,127,127,127,14,2
18:52:17.353328,44,61,72,-15,-13,-128,10,13
18:52:17.375314,-6,-13,-59,-128,127,106,13,8
18:52:17.375314,12,50,127,9,-128,68,11,7
18:52:17.390305,7,51,47,-128,127,75,13,6
18:52:17.397303,18,-37,-29,-128,8,-82,7,14
18:52:17.412294,-6,69,127,127,33,41,2,-8
18:52:17.413290,36,42,10,35,127,-113,18,19
18:52:17.435276,-32,-128,-128,-43,71,0,-28,-21
18:52:17.435276,-2,20,-27,-128,-128,-128,-16,4
18:52:17.450270,7,100,127,109,-128,-128,3,-9
18:52:17.457266,31,-22,35,127,127,127,62,30
18:52:17.480249,2,-72,-128,-128,-128,74,2,24
18:52:17.480249,42,40,-19,-90,-128,-128,30,27
18:52:17.495241,16,119,98,-128,-128,-128,-57,-12
18:52:17.495241,-80,-128,-65,127,127,121,-20,-34
18:52:17.510230,79,127,127,127,-13,-128,17,26
18:52:17.517229,36,-37,-103,-128,127,124,1,6
18:52:17.532220,-33,-107,-126,104,127,-128,-4,-18
18:52:17.533219,28,127,105,-128,-128,-128,-26,4
18:52:17.555205,33,127,127,-128,-128,-48,-12,4
18:52:17.556204,-85,-128,-128,-28,127,4,5,-30
18:52:17.570197,43,12,58,127,127,127,57,21
18:52:17.577192,-17,-93,-88,-128,-128,-128,-28,-3
18:52:17.592182,55,124,127,127,127,34,25,18
18:52:17.600177,-66,-128,-128,127,127,127,18,-18
18:52:17.615165,36,89,63,79,-128,2,0,13
18:52:17.615165,-14,-120,-113,127,127,127,19,-1
18:52:17.645146,44,110,84,127,127,127,-2,6
18:52:17.645146,-70,-128,-47,52,127,-32,-8,-22
18:52:17.652145,-25,-128,-128,-117,-25,-52,-15,-3
18:52:17.667135,-5,-12,-12,-128,127,3,7,-6
18:52:17.675128,11,-19,15,127,127,127,33,2
18:52:17.682125,19,60,18,-52,-110,-128,-4,13
18:52:17.697117,-6,20,77,127,127,114,21,-10
18:52:17.698115,76,127,127,111,127,127,6,17
18:52:17.712107,-23,-33,-30,-128,1,-55,-8,2
18:52:17.720103,1,-4,-39,-84,127,127,8,-5
18:52:17.742089,7,-16,-68,-27,-128,-128,-6,1
18:52:17.743089,-20,0,24,127,127,127,-9,-22
18:52:17.757080,9,22,18,-106,-20,-80,6,13
18:52:17.758076,-16,-60,-45,127,127,127,-2,-12
18:52:17.772067,6,34,48,53,-12,127,10,3
18:52:17.780066,-13,-73,-82,-128,127,127,19,-3
18:52:17.795054,8,36,57,121,62,1,-3,-3
18:52:17.795054,26,70,41,-83,-128,-128,-7,14
18:52:17.818042,-6,-12,-40,-128,-128,106,9,0
18:52:17.818042,27,63,72,-110,-128,-110,-2,13
18:52:17.832033,-40,-73,-78,-128,-22,70,-18,-22
18:52:17.833029,22,49,44,-35,-128,-128,3,9
18:52:17.855018,-14,-38,-26,55,127,46,-9,-5
18:52:17.856017,-3,3,37,127,127,39,4,-5
18:52:17.877005,5,-32,-68,12,127,78,3,3
18:52:17.878002,-1,5,-3,-2,-128,-37,-4,-1
18:52:17.899991,6,18,66,127,127,98,12,3
18:52:17.899991,-2,-1,-8,13,127,2,-4,0
18:52:17.914979,3,3,-5,16,-113,-11,3,3
18:52:17.915979,2,0,-1,-25,-6,-37,-1,0
18:52:17.936966,-1,3,12,127,33,78,2,-1
18:52:17.937968,1,5,-1,-16,38,75,2,0
18:52:17.951957,-7,-5,-11,-20,-33,-37,-10,-5
18:52:17.959954,4,16,18,19,-90,-45,-2,3
18:52:17.974945,-6,-19,-21,-48,7,4,-1,-1
18:52:17.975944,4,9,-1,-41,3,-16,2,0
18:52:17.996929,-1,-3,-7,6,11,-66,-4,-5
18:52:17.997931,-40,-75,-68,-7,-5,-57,-19,-20
18:52:18.012920,6,17,11,-24,-71,-26,-2,1
18:52:18.019917,4,22,36,-5,-128,-45,1,1
18:52:18.034908,3,-5,-3,-43,-128,-93,-4,4
18:52:18.034908,-4,-4,4,8,-11,23,1,-3
18:52:18.057890,12,14,16,109,127,127,12,7
18:52:18.057890,6,6,-3,5,-42,-41,-1,3
18:52:18.072886,10,27,7,-94,-109,-99,-1,1
18:52:18.079880,-9,5,10,-1,-121,-41,-7,-5
18:52:18.094868,6,-3,9,7,127,60,14,8
18:52:18.094868,15,38,64,127,-65,-86,4,8
18:52:18.116857,-1,-28,-18,-62,-128,-128,-7,3
18:52:18.117856,11,34,33,62,73,50,9,5
18:52:18.132847,-8,-17,-34,-100,-22,-128,-5,-3
18:52:18.139843,-18,24,30,1,-55,-52,-12,-11
18:52:18.154831,-41,-92,-84,-119,-128,7,-28,-22
18:52:18.155830,43,119,118,127,127,32,15,12
18:52:18.177818,4,38,47,39,127,19,4,0
18:52:18.177818,-23,-70,-94,-128,-30,15,-9,-4
18:52:18.192810,-4,-4,-5,63,-29,-64,-4,-4
18:52:18.199805,2,6,-21,-87,38,127,8,7
18:52:18.214796,9,1,1,19,93,50,12,8
18:52:18.215796,7,21,10,97,8,2,2,7
18:52:18.236780,-11,-56,-57,127,127,123,5,-1
18:52:18.237780,7,17,9,-76,-128,-50,-4,1
18:52:18.252772,2,16,20,-59,-35,-50,-6,-5
18:52:18.259768,-8,-13,-3,-9,-128,-19,-4,-5
18:52:18.274759,-2,7,16,-32,-57,-6,-5,0
18:52:18.275758,0,-16,-4,14,-23,-16,-5,-4
18:52:18.297742,8,22,8,-106,-128,-42,2,7
18:52:18.297742,5,19,22,56,38,51,6,6
18:52:18.312733,4,0,-5,60,-33,-22,-1,4
18:52:18.319731,10,20,11,-37,-7,-7,2,6
18:52:18.334722,-6,-8,-3,-1,6,4,0,-5
18:52:18.335720,2,1,2,-9,-6,2,1,-2
18:52:18.357705,3,2,2,9,91,10,3,0
18:52:18.357705,0,0,-4,-2,-11,-5,-1,-3
18:52:18.372695,2,1,3,1,1,1,0,3
18:52:18.379693,4,1,4,5,5,2,2,3
18:52:18.394685,4,-1,-3,-2,-4,-4,5,2
18:52:18.395687,-40,-1,4,0,4,2,4,-21
18:52:18.417667,-121,-39,2,6,14,19,49,2
18:52:18.417667,-17,40,14,9,18,34,39,74
18:52:18.432658,-41,-25,3,11,22,31,44,8
18:52:18.439657,127,-128,2,5,33,77,-128,112
18:52:18.454647,-128,127,-10,-40,-72,-128,127,-112
18:52:18.455646,-112,-98,-39,-26,-40,27,-128,-96
18:52:18.477632,-26,52,26,8,-37,-99,127,-128
18:52:18.477632,62,-128,-40,-45,-11,19,-128,127
18:52:18.492621,-128,36,-62,-66,-103,-128,127,-128
18:52:18.499616,-128,-27,32,27,56,67,-10,73
18:52:18.514609,28,7,-58,-107,-109,-27,-128,-25
18:52:18.522606,19,18,29,123,127,45,-20,-8
18:52:18.537592,-76,10,-38,-128,-25,-51,-48,-17
18:52:18.537592,-90,33,43,127,127,80,-14,-16
18:52:18.552587,-47,-128,-57,45,-128,50,-39,-87
18:52:18.559582,91,42,-63,-128,-128,-123,-128,44
18:52:18.574572,-62,26,63,57,127,12,36,-17
18:52:18.582568,-112,-128,15,101,127,49,127,-57
18:52:18.597556,17,59,33,-70,-57,-27,28,4
18:52:18.597556,-89,-4,44,127,127,18,46,-19
18:52:18.627540,127,103,-26,127,-58,-36,47,82
18:52:18.627540,127,98,43,85,-55,63,-104,127
18:52:18.634535,11,38,27,36,127,48,-101,-38
18:52:18.642531,-17,-64,1,-20,-47,14,-128,94
18:52:18.657519,127,110,25,-22,-48,10,82,89
18:52:18.657519,-56,-24,5,18,127,16,-10,-75
18:52:18.679508,4,-18,-15,-97,-128,12,-25,-43
18:52:18.680504,-63,-27,28,123,125,-40,-59,-30
18:52:18.694498,89,56,16,29,7,28,-8,19
18:52:18.702494,-34,-18,-2,1,42,-53,-90,-18
18:52:18.717481,46,27,4,-69,103,23,25,47
18:52:18.718483,33,20,3,-29,72,29,38,25
18:52:18.739469,-2,-5,-2,26,90,31,89,-39
18:52:18.740467,-93,-36,3,-20,66,10,-5,-42
18:52:18.754461,-13,6,-5,-128,48,9,9,-9
18:52:18.762457,10,6,-2,-16,-107,38,21,24
18:52:18.777447,-19,-6,9,-16,38,-9,46,-11
18:52:18.777447,-9,-12,-3,30,-102,-8,-2,-20
18:52:18.799433,25,21,7,-32,89,30,6,42
18:52:18.800430,-21,-29,4,21,14,16,10,-32
18:52:18.815424,69,29,8,-16,-18,-35,-3,-7
18:52:18.822419,-20,-8,-2,3,37,29,0,-18
18:52:18.844402,4,2,-3,32,127,35,1,1
18:52:18.845405,4,-2,5,48,111,10,-6,6
18:52:18.859394,-29,-15,-10,-19,-65,-17,-27,-2
18:52:18.860395,22,-1,-24,-24,-79,-50,-8,-10
18:52:18.875384,32,18,9,-7,-90,7,-37,2
18:52:18.882382,16,-3,-4,-23,-25,-28,17,2
18:52:18.897370,-35,-20,-16,-108,-128,6,9,-8
18:52:18.898373,-6,-12,5,122,48,28,11,-6
18:52:18.919359,-1,-3,12,35,48,41,59,50
18:52:18.920357,-8,5,5,17,-5,-13,11,-11
18:52:18.942345,16,14,-1,19,-128,-28,-53,0
18:52:18.943343,42,30,23,-7,-6,25,14,40
18:52:18.957336,-10,-5,-18,1,-29,-4,0,-14
18:52:18.958332,30,13,12,21,43,5,16,-1
18:52:18.980319,-6,-4,-1,-8,-27,2,-1,-5
18:52:18.980319,3,5,-7,-124,-119,-8,0,2
18:52:19.002308,-13,-12,-6,38,22,-16,-27,-18
18:52:19.003309,3,6,-4,-96,-2,-7,1,1
18:52:19.017299,23,7,24,46,33,16,10,16
18:52:19.018298,22,15,5,1,1,8,-4,13
18:52:19.040282,5,-9,-3,-8,-17,0,43,3
18:52:19.040282,7,2,0,-25,44,16,14,7
18:52:19.062271,2,-2,2,1,-17,-3,11,1
18:52:19.063267,-2,0,8,115,127,59,5,0
18:52:19.077261,14,6,0,-20,80,3,5,13
18:52:19.078258,-3,-2,1,25,18,4,15,0
18:52:19.100245,12,-5,-8,-48,-112,16,-10,-14
18:52:19.100245,-20,-8,-3,21,37,1,-6,-12
18:52:19.122233,-2,-5,-10,-16,-16,-4,5,-11
18:52:19.123233,18,-1,0,18,-28,-1,3,12
18:52:19.145218,-6,-1,3,69,43,6,9,3
18:52:19.145218,-12,-9,-2,2,39,1,-7,-9
18:52:19.160209,-1,1,1,-30,2,-8,-1,-2
18:52:19.160209,3,4,0,8,19,9,-3,-1
18:52:19.175201,-1,0,-4,-10,-9,-5,-24,-11
18:52:19.182196,15,9,2,5,12,1,-12,-5
18:52:19.197187,9,8,2,2,-6,3,2,14
18:52:19.198185,-6,-7,-1,0,-6,0,-2,-1
18:52:19.220170,4,1,1,-15,73,3,1,4
18:52:19.220170,-5,-7,-1,11,67,-2,-3,-2
18:52:19.235161,-2,1,-1,-13,-31,-6,-1,2
18:52:19.242159,0,0,3,4,-1,1,1,0
18:52:19.257150,-10,-3,3,31,21,0,2,4
18:52:19.258149,-15,3,1,6,4,1,-1,-7
18:52:19.280132,26,1,-1,1,3,4,0,13
18:52:19.281134,-7,-5,-4,-4,-9,-13,-6,-9
18:52:19.295126,-12,-8,-1,-1,1,3,-1,-5
18:52:19.302120,-3,-3,-1,-3,2,3,-3,-4
18:52:19.317113,0,0,-1,1,5,0,-12,1
18:52:19.318109,-2,-2,1,-4,-5,1,-15,-3
18:52:19.340095,2,1,0,0,2,-1,2,0
18:52:19.340095,-2,-2,-2,-1,-1,0,0,-1
18:52:19.362085,34,11,4,0,2,6,10,11
18:52:19.363082,-7,-1,-3,0,4,-1,1,3
18:52:19.377076,3,2,6,3,0,1,4,0
18:52:19.378075,1,-1,-1,-3,-1,-5,-2,-1
18:52:19.400061,2,2,-2,3,3,0,-1,1
18:52:19.401059,-1,-3,-2,0,0,2,-1,-2
18:52:19.422047,0,-4,0,-2,-5,-5,-6,-6
18:52:19.423044,-3,-1,1,0,-4,-1,-17,2
18:52:19.437038,2,-3,-2,-1,0,2,12,5
18:52:19.438037,0,1,0,-1,-3,-9,4,-1
18:52:19.460020,11,1,0,1,1,1,-1,3
18:52:19.460020,6,7,3,2,3,-1,4,10
18:52:19.482008,-4,2,-1,-1,-4,0,0,-1
18:52:19.483007,-4,0,-2,-1,0,-2,-2,-4
18:52:19.497001,-1,0,-1,0,-1,0,-1,-1
18:52:19.497998,-1,-4,0,-2,-3,1,0,1
18:52:19.519987,3,-2,1,-3,-1,2,0,-2
18:52:19.520983,-4,-2,0,-1,1,-2,1,-2
18:52:19.541972,-12,-3,2,-2,0,2,-8,-5
18:52:19.542972,-3,-7,-2,-2,1,-4,0,4
18:52:19.556962,-2,-3,0,-6,-5,-5,-1,-1
18:52:19.557960,1,-1,0,2,1,5,0,0
18:52:19.579947,-1,-1,-2,-1,-2,1,6,3
18:52:19.579947,10,5,-1,0,-1,0,-1,4
18:52:19.601932,-2,1,1,3,-4,-1,-2,1
18:52:19.602933,-2,-1,-4,-2,-1,-3,-5,-5
18:52:19.617926,4,1,-2,-2,0,0,5,7
18:52:19.617926,-5,-1,-3,-4,-6,-12,-30,-14
18:52:19.639912,1,-1,-2,0,1,5,5,0
18:52:19.640909,6,-1,0,0,0,2,3,0
18:52:19.662895,1,1,2,-1,1,1,0,3
18:52:19.662895,1,1,-2,-3,-4,-3,-8,0
18:52:19.676886,5,5,4,3,0,2,4,6
18:52:19.677887,4,-1,-2,-3,-1,-5,-3,3
18:52:19.699875,-5,-3,-1,-2,-2,1,-1,-4
18:52:19.700872,0,-1,-6,-3,-5,-5,-7,-4
18:52:19.721859,13,2,1,2,2,-3,-6,0
18:52:19.722861,0,-3,-2,-4,-3,0,2,-1
18:52:19.736850,-4,1,0,1,-1,-1,-2,-6
18:52:19.737849,4,1,2,2,3,-3,0,1
18:52:19.759838,2,-2,-1,-4,-2,3,-3,8
18:52:19.760838,4,2,1,4,20,4,1,0
18:52:19.782824,0,2,1,3,-4,-8,0,-5
18:52:19.782824,5,0,-2,-3,-3,-1,0,3
18:52:19.796812,-11,-5,-3,-1,33,3,-3,-4
18:52:19.797811,8,1,-2,-3,-1,-2,-11,6
18:52:19.819798,-1,-5,-2,-2,-3,-5,1,-4
18:52:19.820797,4,0,-1,-2,-4,-3,0,0
18:52:19.842783,-3,-1,-1,-1,-1,0,-1,1
18:52:19.842783,-3,-3,-3,-6,-5,-4,2,6
18:52:19.857774,1,-4,-5,-5,-1,-4,-1,-3
18:52:19.857774,-4,-1,-5,-3,-4,-5,-5,1
18:52:19.879763,-3,-1,-2,-3,-2,0,2,0
18:52:19.880760,-4,4,-1,0,-1,4,-10,-1
18:52:19.902746,3,2,-1,-3,-3,-4,0,-4
18:52:19.902746,-1,1,2,0,1,1,3,1
18:52:19.917739,-4,0,-5,0,-2,2,-1,1
18:52:19.917739,3,1,1,0,7,0,-6,5
18:52:19.947718,-4,0,-2,-2,1,0,3,-2
18:52:19.947718,-3,-5,-4,-1,0,1,0,-3
18:52:19.961709,8,4,-1,2,1,5,3,4
18:52:19.962709,4,3,3,1,4,9,27,31
18:52:19.977700,-2,-3,2,-3,-2,1,-3,-6
18:52:19.977700,-2,-3,-3,-1,-4,0,9,2
18:52:19.999686,4,3,1,-1,-1,-1,4,-1
18:52:20.000686,2,0,3,4,6,2,3,2
18:52:20.022674,-1,0,-3,-1,1,-1,-3,-1
18:52:20.022674,0,-1,0,1,4,-3,2,5
18:52:20.037663,-2,-1,0,-2,-2,3,6,5
18:52:20.037663,-1,-1,-3,-4,-2,-1,-14,-3
18:52:20.059649,11,10,4,1,2,0,2,8
18:52:20.060649,-3,-2,-4,-1,-4,-4,-7,-7
18:52:20.082635,-2,-3,-1,-2,-2,1,0,3
18:52:20.082635,1,0,1,1,2,2,1,1
18:52:20.097625,3,3,1,0,1,-3,13,-2
18:52:20.097625,-2,1,1,-1,1,2,1,1
18:52:20.119615,-1,0,2,-2,-3,-1,-1,-3
18:52:20.120611,-1,0,-1,-1,-4,0,-1,1
18:52:20.142601,-4,-4,-1,1,-2,-3,0,0
18:52:20.142601,10,4,-1,1,-1,1,2,3
18:52:20.157588,-7,-5,-5,1,-2,-1,-3,1
18:52:20.158588,-1,-3,-2,-2,-3,-2,1,-4
18:52:20.187569,0,2,-2,-4,1,2,-3,0
18:52:20.187569,-1,-3,-6,-3,-1,-3,-3,2
18:52:20.202561,-3,-3,-3,-2,-4,-5,5,-1
18:52:20.202561,-1,-3,-2,0,2,-2,-1,0
18:52:20.224550,1,2,-1,-3,-1,-3,2,4
18:52:20.225546,1,-4,-1,-1,-3,-3,-18,-1
18:52:20.239540,6,4,1,0,3,0,1,6
18:52:20.240538,-4,-4,1,-4,-2,1,1,0
18:52:20.262523,-2,2,2,1,-3,-3,-1,-3
18:52:20.262523,3,-3,-2,0,-3,-2,1,3
18:52:20.284513,-5,-2,-1,-4,-1,0,0,2
18:52:20.285509,0,0,-2,-3,-3,0,-1,-3
18:52:20.300499,-7,-1,1,1,0,1,0,-1
18:52:20.300499,-3,-3,-2,0,-1,-1,3,-3
18:52:20.322486,-1,1,-1,0,-1,-3,-4,-2
18:52:20.322486,-1,1,1,0,-4,-5,-3,-7
18:52:20.344475,-4,0,0,-2,-3,-4,-18,-7
18:52:20.345472,-3,1,-1,1,-2,-2,2,1
18:52:20.359466,-1,1,-1,0,-2,1,0,1
18:52:20.360465,-1,-4,-1,-1,-1,-3,-1,0
18:52:20.382448,1,1,1,0,2,2,3,2
18:52:20.383450,9,1,1,2,-4,2,-4,-2
18:52:20.404437,-8,-5,-3,-1,-4,-6,-3,-1
18:52:20.405436,-2,-5,-5,-5,-3,-4,-1,0
18:52:20.419428,1,-3,-2,-3,-4,2,0,-3
18:52:20.420425,-1,-3,0,1,-2,1,0,-5
18:52:20.442415,-1,0,-2,-1,0,-1,14,-3
18:52:20.443411,-1,0,0,-3,1,1,-2,-1
18:52:20.464398,-9,-6,-5,1,3,4,2,-3
18:52:20.465400,-6,-3,0,2,0,-5,10,-5
18:52:20.479388,-4,-1,-1,-2,-4,1,-5,-1
18:52:20.480388,0,2,2,0,1,-3,3,2
18:52:20.502378,-1,-2,-5,-3,-4,0,-3,-3
18:52:20.503374,5,0,2,-2,-1,-1,0,3
18:52:20.524361,-2,-1,-3,-3,-4,0,0,4
18:52:20.525360,5,3,2,0,0,-1,2,8
18:52:20.540351,9,0,-1,0,-2,-5,-3,4
18:52:20.540351,-2,1,2,0,5,3,0,5
18:52:20.562340,0,-1,1,0,-1,-1,1,-1
18:52:20.563342,-6,1,2,0,-2,0,-19,-10
18:52:20.585323,3,2,-1,0,2,5,8,4
18:52:20.585323,1,-1,0,2,4,5,-10,0
18:52:20.600315,-4,-4,-6,-3,-4,-2,1,4
18:52:20.600315,0,2,0,-3,-1,0,-2,-3
18:52:20.622300,-4,-4,-3,-1,-3,-1,-5,-2
18:52:20.623300,3,1,-3,-3,-2,4,6,7
18:52:20.645289,0,1,0,-1,1,-5,-2,-3
18:52:20.645289,0,-3,-2,-3,-2,0,0,-4
18:52:20.660276,3,0,3,2,0,-2,-3,-1
18:52:20.660276,-4,0,1,8,6,4,0,-4
18:52:20.682266,-4,0,-1,-4,-2,0,2,-3
18:52:20.683265,9,3,-1,0,-2,5,-6,5
18:52:20.705254,-4,-3,2,1,-1,-3,1,-3
18:52:20.705254,7,0,0,-2,-1,-2,0,3
18:52:20.719243,-3,-1,2,-1,1,0,-10,-3
18:52:20.720241,-3,0,-3,-1,-2,1,3,1
18:52:20.742229,1,3,1,4,0,-3,-4,-5
18:52:20.743225,0,-2,0,-2,-2,-1,0,3
18:52:20.765214,5,2,1,0,2,2,-4,-5
18:52:20.765214,1,0,-1,-1,-4,-1,0,2
18:52:20.780202,-2,-1,-2,-2,-4,-8,-8,-8
18:52:20.780202,2,-2,-2,0,-1,-1,-2,-4
18:52:20.802192,-4,-1,-1,-2,-2,-1,0,3
18:52:20.803191,-2,1,-1,-1,-1,-1,0,-2
18:52:20.825175,9,2,0,0,3,1,-1,1
18:52:20.825175,-2,-1,1,-2,-2,2,-9,-2
18:52:20.840166,-3,-8,-5,-4,-4,-7,-3,-1
18:52:20.840166,-2,-6,-5,-3,-6,-2,-7,-5
18:52:20.862154,3,0,-1,0,1,-5,13,3
18:52:20.863151,-1,3,-2,1,0,2,1,-1
18:52:20.885137,2,0,0,-3,-2,1,5,7
18:52:20.885137,0,-1,0,0,0,0,1,-2
18:52:20.900128,-3,1,1,1,1,0,-1,-5
18:52:20.900128,-3,0,1,-2,-3,-2,-4,-3
18:52:20.922117,-1,-4,-1,0,-1,-1,-2,0
18:52:20.923114,-4,1,2,3,3,3,1,-4
18:52:20.945100,-2,1,1,-3,-1,-4,-2,-2
18:52:20.945100,-12,-6,0,-4,0,1,-3,-4
18:52:20.960090,5,0,-1,-3,0,1,0,1
18:52:20.960090,-1,0,1,0,0,5,-11,2
18:52:20.983077,-1,1,-1,0,0,-5,-1,-1
18:52:20.983077,-3,-2,2,0,1,-1,-2,0
18:52:21.005063,-3,-1,0,-1,-4,-5,-6,-4
18:52:21.006065,1,-2,-2,-1,-1,0,2,-3
18:52:21.020056,-1,-4,-3,-1,-1,2,-9,0
18:52:21.027051,0,-1,1,0,-2,-3,1,-2
18:52:21.050038,1,3,0,0,3,-1,-2,-8
18:52:21.050038,4,-2,-5,1,-4,0,-1,-2
18:52:21.065026,-4,2,-2,-4,0,0,-1,0
18:52:21.065026,-1,-3,0,-3,0,4,-2,0
18:52:21.080017,-2,-4,-4,-3,-3,-2,-3,-1
18:52:21.087011,-3,1,-1,-1,0,3,-3,-5
18:52:21.102005,2,3,-4,4,1,0,0,-2
18:52:21.103005,1,0,1,0,3,9,10,5
18:52:21.131987,-8,0,0,1,-4,-1,10,0
18:52:21.132986,11,5,-1,0,-1,-4,4,7
18:52:21.139982,1,3,3,3,3,-1,-6,-7
18:52:21.146974,2,2,1,4,2,5,3,0
18:52:21.161967,0,0,-1,-2,0,1,5,6
18:52:21.162966,5,0,-1,1,-2,0,-1,-2
18:52:21.184954,-1,-3,1,0,2,-6,-4,0
18:52:21.185953,-6,-5,1,1,2,0,-3,-4
18:52:21.199945,-3,-6,-1,-1,-3,-8,-14,-5
18:52:21.206938,-4,-1,1,-1,-3,0,0,-5
18:52:21.221930,0,3,0,0,0,3,5,3
18:52:21.222930,-4,-4,-3,-5,-3,5,-10,-2
18:52:21.244917,5,2,0,-2,0,1,1,1
18:52:21.245917,0,-2,-4,-1,-3,-3,0,0
18:52:21.259908,-1,1,1,-2,-1,0,-2,-6
18:52:21.266901,0,-2,0,-1,-3,-6,5,9
18:52:21.281894,-5,-5,-2,-4,0,-3,-7,-6
18:52:21.282890,-5,-1,0,1,3,1,2,0
18:52:21.304880,0,-1,0,-3,-2,-3,-3,-3
18:52:21.304880,-2,0,0,0,3,-1,1,1
18:52:21.319871,-2,-5,-2,1,-1,-4,-2,-2
18:52:21.326863,-11,-6,0,-2,0,0,-17,-9
18:52:21.341854,7,-1,-1,-3,-1,-1,8,3
18:52:21.342856,-1,1,1,0,0,1,-6,-1
18:52:21.364841,-1,-2,-4,-3,-4,-4,-2,-2
18:52:21.365842,0,0,3,2,2,-3,0,4
18:52:21.379833,1,-3,3,3,2,-1,0,1
18:52:21.386826,-7,-4,-4,-3,-3,0,-4,-4
18:52:21.402818,-4,-3,0,-1,0,-1,-3,5
18:52:21.402818,6,2,1,0,-1,2,-2,1
18:52:21.424805,7,8,2,1,1,1,-2,-4
18:52:21.425804,0,1,0,1,-1,-3,-1,0
18:52:21.447788,-1,-3,-2,-2,1,-2,-1,-6
18:52:21.447788,-2,1,2,2,-1,-1,-1,3
18:52:21.461781,4,-1,0,0,-1,3,-6,1
18:52:21.462780,-5,0,1,-1,-2,-1,3,-4
18:52:21.484769,-3,-4,-3,0,0,-4,-1,-1
18:52:21.485768,2,2,-5,-2,-3,-2,-1,0
18:52:21.506751,-4,0,1,-2,1,2,3,-2
18:52:21.507753,-9,-8,-4,-2,1,-1,-1,-1
18:52:21.521742,-2,3,-3,1,2,1,4,0
18:52:21.522744,-5,-1,-1,2,-2,0,1,3
18:52:21.544731,-4,-1,-2,-2,-3,-3,0,1
18:52:21.545727,0,-1,-1,-1,-1,-1,-1,-1
18:52:21.567715,-2,-1,-3,2,-1,1,0,-2
18:52:21.567715,2,1,-1,-1,-2,-5,-1,-1
18:52:21.582706,-3,-1,0,-2,0,-2,26,-3
18:52:21.582706,-1,1,0,0,0,0,-1,-2
18:52:21.604694,-4,-7,-1,1,-2,-2,4,-1
18:52:21.605693,1,-2,-5,1,-2,-2,-3,0
18:52:21.627678,-10,-10,-1,-3,-3,0,-1,-6
18:52:21.627678,-1,-1,-3,-1,-1,-2,-1,-4
18:52:21.642667,-1,-6,1,-1,1,-3,1,0
18:52:21.642667,-3,0,0,0,0,1,1,1
18:52:21.664654,-5,1,0,0,1,5,2,-4
18:52:21.665655,-1,1,2,2,0,2,5,-1
18:52:21.687640,-1,2,-1,0,4,6,2,4
18:52:21.687640,6,2,-3,-3,-5,-6,-11,1
18:52:21.702630,3,-2,-1,-1,-1,0,2,1
18:52:21.709629,1,4,3,0,0,-2,10,-9
18:52:21.724619,5,1,1,4,0,2,-4,0
18:52:21.725617,-3,-1,-4,-1,1,0,2,-2
18:52:21.747602,1,-1,-1,0,0,2,1,0
18:52:21.748601,-6,-3,-6,-5,-3,1,1,-4
18:52:21.762596,-1,2,0,-3,-2,-2,0,3
18:52:21.769589,-3,-4,-3,-3,-4,-4,-6,-3
18:52:21.784583,7,2,0,0,-2,3,7,8
18:52:21.785578,1,-1,-1,-1,-4,-2,-3,-3
18:52:21.807571,-7,-4,0,1,0,1,0,0
18:52:21.807571,-6,-4,0,-1,-1,-3,-2,-5
18:52:21.822558,-4,0,1,-4,-3,-1,-4,-2
18:52:21.829553,-1,0,-1,0,1,-1,11,0
18:52:21.844545,-3,0,-2,1,-2,-2,-1,-5
18:52:21.845542,-2,-2,-3,-2,-5,-1,0,-1
18:52:21.867530,-1,0,2,-3,-5,0,-10,0
18:52:21.868527,5,3,-2,-5,1,-4,-3,-3
18:52:21.882522,0,-3,0,1,-4,-4,2,-1
18:52:21.889514,-3,-3,1,-2,0,0,2,-2
18:52:21.904507,-2,1,-1,0,1,-5,-5,2
18:52:21.905505,5,0,-3,0,-3,1,1,5
18:52:21.927494,0,-1,0,1,-1,-1,0,0
18:52:21.928493,-4,1,-1,-2,-3,-1,-4,-4
18:52:21.942482,0,-1,-1,-2,-6,-6,-1,-3
18:52:21.949477,0,0,-2,0,0,-4,0,2
18:52:21.964468,1,0,-3,-4,-3,-3,-22,-6
18:52:21.965470,7,1,-1,-1,-1,-2,0,1
18:52:21.987457,-1,0,-4,-1,2,3,5,1
18:52:21.988453,-4,-1,1,-4,-2,-1,8,1
18:52:22.002447,5,-1,-4,-2,-3,-2,-5,-6
18:52:22.009440,4,-1,2,-2,2,2,2,8
18:52:22.024432,-1,0,1,-2,2,1,-2,1
18:52:22.025431,7,1,0,3,5,6,3,4
18:52:22.047417,-5,-2,-2,-1,-1,-3,-1,-3
18:52:22.048417,1,2,0,0,0,-1,-2,-1
18:52:22.062410,-5,-2,0,-1,-4,-2,-3,-1
18:52:22.070402,-9,-2,-1,-1,1,-2,-6,-1
18:52:22.084396,0,0,0,-3,-1,-1,-1,-2
18:52:22.085395,-1,-1,0,2,0,-3,-20,-6
18:52:22.107382,2,2,1,0,2,0,2,-3
18:52:22.108378,-4,1,-1,-2,-2,3,5,-1
18:52:22.122373,-1,4,5,4,2,-7,-1,0
18:52:22.129367,4,-2,1,0,-2,-1,-1,3
18:52:22.152351,-6,-3,-3,-4,-1,0,5,2
18:52:22.153350,-9,-2,0,0,-3,-4,-5,-7
18:52:22.167345,-5,1,-1,3,-2,-3,4,-2
18:52:22.168342,-5,-3,-4,-4,-2,-4,-5,-7
18:52:22.182336,1,-1,-3,-3,-4,0,-3,4
18:52:22.190327,1,0,0,-1,-1,-1,2,2
18:52:22.204320,-4,-1,2,3,-1,0,-2,-5
18:52:22.205318,-1,-3,-3,-2,-5,-3,1,3
18:52:22.227308,-4,-3,0,0,-1,-2,-10,-2
18:52:22.228305,-2,-3,-1,2,0,2,5,-1
18:52:22.242298,-1,-3,-2,-3,-4,-6,-2,0
18:52:22.250294,-3,0,-5,-1,-2,0,-2,-1
18:52:22.265283,-1,-2,0,1,3,0,-1,-1
18:52:22.265283,-5,-1,-4,0,-3,1,-13,-3
18:52:22.287271,-1,1,-1,-1,0,-1,4,-1
18:52:22.288268,-6,0,2,1,1,-3,2,1
18:52:22.302261,-4,-2,3,-1,2,1,-1,-5
18:52:22.310257,7,2,1,1,-3,-3,-5,-4
18:52:22.325244,3,4,3,0,1,0,-1,2
18:52:22.325244,-6,-2,-2,-1,-1,-2,-1,-8
18:52:22.347231,-5,-3,-2,-2,1,-1,-3,-4
18:52:22.348230,0,3,-1,1,2,-2,1,2
18:52:22.370216,-5,-3,0,1,1,2,-14,-1
18:52:22.370216,-3,-1,-1,-1,1,1,4,0
18:52:22.385209,13,5,0,-1,-2,-1,3,7
18:52:22.385209,1,2,-3,0,-2,1,-1,2
18:52:22.407193,-4,-1,1,1,1,-3,-2,-7
18:52:22.408192,3,2,1,0,0,-1,3,0
18:52:22.430179,2,1,0,1,1,4,0,-1
18:52:22.430179,3,-2,-1,1,-1,2,4,9
18:52:22.445169,4,1,1,1,1,3,8,9
18:52:22.445169,-9,-5,1,0,-2,-3,-1,-1
18:52:22.467159,-3,-5,1,0,-1,-1,3,1
18:52:22.468155,1,-3,1,0,-1,4,5,0
18:52:22.490142,-4,-1,1,1,-4,-3,1,1
18:52:22.490142,-2,-4,-2,0,0,-3,6,5
18:52:22.505134,-3,0,-2,-1,-2,-2,-1,-6
18:52:22.505134,15,2,-2,0,-2,0,1,10
18:52:22.527122,-1,3,4,1,1,-2,-4,-4
18:52:22.528120,2,4,3,0,-1,2,11,9
18:52:22.550105,5,1,-3,-1,-1,-1,0,-4
18:52:22.550105,5,-1,3,3,2,3,-3,3
18:52:22.565095,-2,1,1,2,0,0,1,0
18:52:22.565095,-6,-5,-4,0,-2,0,-2,-6
18:52:22.587085,-6,-3,-2,-4,-2,0,0,-3
18:52:22.588083,-5,-4,-3,0,-2,3,0,1
18:52:22.610070,2,-1,0,0,1,-3,-2,-4
18:52:22.610070,-4,-1,-1,0,-3,1,2,0
18:52:22.625057,2,0,-1,-2,-5,-1,1,1
18:52:22.625057,5,3,0,0,-6,-2,0,-1
18:52:22.647044,2,3,0,-1,-6,-4,-15,-3
18:52:22.648044,-3,-2,-1,-1,-3,1,3,-6
18:52:22.670029,1,-1,-2,-1,-3,-4,-2,1
18:52:22.670029,-3,-1,-1,-2,0,-1,-2,0
18:52:22.692020,-3,-1,-2,1,1,-1,-1,-1
18:52:22.693016,0,-6,-4,-4,-1,3,-6,6
18:52:22.708008,-2,2,0,-3,3,-1,2,-2
18:52:22.708008,-2,-4,-3,-2,-2,1,1,-1
18:52:22.729994,1,-3,-4,-1,0,-3,-2,-2
18:52:22.730994,-6,1,2,1,-2,-2,-4,-3
18:52:22.744984,3,-1,-1,-3,-2,-2,0,-1
18:52:22.751990,0,-1,-1,-3,-1,-1,3,1
18:52:22.766973,0,-1,1,1,2,-3,0,-2
18:52:22.767971,-2,1,-1,-1,-2,-4,0,0
18:52:22.789959,-3,-2,1,-1,-1,0,-2,1
18:52:22.790958,9,4,-1,-2,-3,-2,0,-1
18:52:22.804946,-5,-1,2,1,-1,-3,-5,-3
18:52:22.811942,6,6,0,-2,-2,-3,0,0
18:52:22.826935,-2,-4,-3,-1,-4,0,1,-1
18:52:22.827935,0,2,-3,1,1,-1,-2,0
18:52:22.849921,1,2,0,-1,-1,2,-4,-4
18:52:22.850921,-5,-3,-3,-1,-4,-5,-2,2
18:52:22.864909,10,5,4,1,1,-2,-5,0
18:52:22.871907,-1,-3,-2,1,-1,-3,-2,-1
18:52:22.886897,5,3,-3,-1,-3,-4,1,2
18:52:22.887898,0,-1,1,1,-3,0,-5,0
18:52:22.909884,-1,1,-2,4,3,-3,2,-2
18:52:22.909884,2,2,1,2,-2,1,0,0
18:52:22.924875,-3,0,-1,-1,-2,-6,-3,-3
18:52:22.932867,0,1,1,2,2,2,0,-4
18:52:22.946858,-3,1,2,3,2,6,4,6
18:52:22.947859,4,0,-3,-3,-4,0,-11,-4
18:52:22.969844,-6,-6,-3,-4,-6,-4,-3,-1
18:52:22.970847,-5,-2,-5,1,-1,-6,-2,-4
18:52:22.984838,-6,0,0,0,-2,0,2,-3
18:52:22.991833,-5,-5,0,-1,-3,-3,0,-2
18:52:23.006822,-4,-6,-1,-1,1,0,0,-4
18:52:23.007823,5,5,0,-1,-2,-1,0,4
18:52:23.029810,-9,-5,-2,-1,-1,-3,-4,-1
18:52:23.030807,-1,-2,-2,0,-2,-5,-5,-4
18:52:23.044797,-4,-1,-3,-2,-4,-3,-3,-7
18:52:23.052792,-5,-6,0,-4,1,-3,0,-5
18:52:23.067783,2,3,-1,0,-2,-3,2,1
18:52:23.067783,-7,0,-3,-3,-2,-5,0,-1
18:52:23.089773,0,2,0,-2,-1,-2,1,-1
18:52:23.090769,1,-3,0,0,-1,-2,-3,-4
18:52:23.104763,-2,-1,-2,0,0,1,-3,-1
18:52:23.112755,-6,-2,-2,0,0,-1,-1,-1
18:52:23.126747,-1,2,3,2,4,-1,0,2
18:52:23.127747,-2,2,0,0,-3,0,-3,-4
18:52:23.149736,0,2,0,3,-2,2,-2,1
18:52:23.150733,-4,-3,-1,-2,-2,-3,-3,-3
18:52:23.164724,-3,-3,-4,-3,-6,-6,-4,-5
18:52:23.172718,2,3,-1,1,-4,-2,-2,-3
18:52:23.187710,-1,3,0,-5,0,0,-4,1
18:52:23.187710,-1,1,3,0,1,-1,-2,0
18:52:23.209698,-2,0,-1,1,1,-3,0,1
18:52:23.210698,-9,-3,-2,-1,-2,-7,-10,-8
18:52:23.224689,-2,-3,-2,1,-2,-5,-3,-3
18:52:23.232685,0,0,0,0,-1,-5,0,1
18:52:23.254670,-3,-4,0,-2,-6,-1,2,2
18:52:23.255667,1,-3,-4,-3,-2,-4,-2,-2
18:52:23.269661,-4,-3,2,-2,0,0,2,-5
18:52:23.270657,-5,-4,0,-3,-4,1,-4,-2
18:52:23.284651,1,0,-1,0,1,2,1,-3
18:52:23.292646,-3,-2,-1,4,1,2,-1,-1
18:52:23.307634,-4,-4,0,-2,2,5,1,0
18:52:23.314634,-3,1,1,3,-3,-4,-5,-2
18:52:23.329624,-7,-3,2,-3,1,-6,-6,-5
18:52:23.330621,5,1,-4,-4,0,-2,0,3
18:52:23.352608,4,2,-1,-2,-1,-4,0,2
18:52:23.352608,-3,-2,-3,-3,-4,2,-3,-5
18:52:23.367598,1,4,3,4,2,-2,2,4
18:52:23.367598,4,-1,0,1,-1,-2,-1,-1
18:52:23.389587,-8,-3,2,4,2,3,-2,1
18:52:23.390583,3,-2,-2,-1,-3,0,0,1
18:52:23.412571,1,0,-1,2,-2,-1,0,5
18:52:23.412571,-1,0,0,-2,-4,-2,-1,-2
18:52:23.427564,-2,-1,-5,-1,0,0,-1,1
18:52:23.434557,-2,2,2,2,-1,1,-3,-2
18:52:23.450546,0,-1,3,0,0,-2,-4,2
18:52:23.450546,-8,-4,-1,1,3,2,-1,2
18:52:23.472534,4,2,-1,-1,-1,2,5,8
18:52:23.472534,-1,-2,-1,2,-3,-1,0,-2
18:52:23.487526,5,2,0,1,-1,3,-7,1
18:52:23.488522,-7,-2,-1,0,0,1,4,-1
18:52:23.509509,-6,-1,-3,-2,0,-3,-1,-4
18:52:23.510512,-5,-2,-2,-1,2,-1,-2,-2
18:52:23.532497,5,-2,-4,1,3,-1,1,2
18:52:23.533496,0,-2,-2,2,-1,-2,-16,-1
18:52:23.547486,-6,0,-1,1,2,-8,-4,-6
18:52:23.548485,0,-4,-4,-2,-3,-1,-2,0
18:52:23.569475,7,1,1,-1,0,-1,2,4
18:52:23.570474,1,-1,0,-3,-2,-4,0,-1
18:52:23.592462,-6,0,-2,-2,-3,1,1,-3
18:52:23.592462,-4,-4,-5,-3,0,0,-5,-4
18:52:23.607452,2,-2,-3,2,1,-1,2,2
18:52:23.622442,4,2,0,0,-2,-2,-1,4
18:52:23.629437,0,-3,-1,-1,0,2,0,1
18:52:23.637433,-3,0,2,2,-1,2,0,-4
18:52:23.652424,-4,-5,0,0,-3,1,2,0
18:52:23.652424,12,1,-4,0,2,-1,-1,4
18:52:23.667415,-5,-3,0,-3,0,0,0,-4
18:52:23.674415,3,-1,-1,1,1,-1,-2,0
18:52:23.690399,-1,0,-2,-4,0,1,1,-4
18:52:23.690399,-4,-6,-4,-1,-3,0,0,-2
18:52:23.712387,1,-4,-4,-3,-2,0,-5,-1
18:52:23.713383,1,-1,0,0,-5,-1,-1,2
18:52:23.727377,0,0,1,-2,-1,-1,-2,-2
18:52:23.735373,1,-5,-3,-2,-1,-3,1,-3
18:52:23.750363,-4,-1,-3,1,1,-2,0,-1
18:52:23.750363,-6,0,-2,-3,-2,3,-6,-3
18:52:23.772350,-3,-2,2,-1,1,-2,-1,-6
18:52:23.773346,0,0,2,1,-4,-2,-12,-5
18:52:23.787340,0,-4,-1,-2,-1,-1,5,6
18:52:23.794338,0,0,-2,-1,-2,-4,2,-1
18:52:23.810325,-1,-1,-2,1,1,-3,12,1
18:52:23.810325,-4,-2,-1,-1,1,-1,-4,-3
18:52:23.832312,-1,1,-2,0,0,8,3,2
18:52:23.833310,0,-4,-2,-1,-3,2,3,1
18:52:23.847303,-2,-1,1,-3,-2,0,-1,-4
18:52:23.855295,-1,-6,-5,0,0,-1,1,0
18:52:23.870286,1,-2,-2,-3,-2,-4,-5,-1
18:52:23.870286,-5,-4,-1,0,-1,-4,-4,-6
18:52:23.892275,-1,-4,-2,-2,-1,0,-2,2
18:52:23.893271,-2,-1,-1,-4,-1,0,0,-2
18:52:23.907266,1,-3,-3,-3,-4,2,1,-1
18:52:23.915259,0,-2,-3,-3,1,0,-1,3
18:52:23.930248,-9,-7,2,-3,-2,2,1,-3
18:52:23.931248,0,-1,2,0,-1,-3,0,1
18:52:23.952238,0,-4,1,-3,-5,-1,-5,-3
18:52:23.953234,-3,1,2,1,-1,0,-1,-3
18:52:23.967229,7,2,-1,0,0,-3,-15,0
18:52:23.975221,-6,-3,-4,0,-1,-3,1,-2
18:52:23.990211,-5,-4,-1,-3,1,2,4,1
18:52:23.990211,-4,-1,0,-1,-3,0,-1,-2
18:52:24.012201,-4,-4,-1,0,-2,-2,-7,-4
18:52:24.013197,0,-2,1,-2,-1,-1,2,2
18:52:24.027191,9,2,3,1,-4,-3,-5,0
18:52:24.035185,14,-1,1,1,3,1,1,0
18:52:24.070161,-1,-3,-1,0,-1,-3,-2,-4
18:52:24.070161,5,3,4,-1,1,1,1,-6
18:52:24.088150,-1,-1,2,1,0,2,3,1
18:52:24.088150,0,-2,-2,-3,-1,-1,-1,-1
18:52:24.089150,-8,1,-2,-1,-5,1,-2,-3
18:52:24.095147,-5,-1,-1,0,0,1,1,-5
18:52:24.109144,2,0,-1,-3,0,-3,1,0
18:52:24.110137,5,4,-3,-3,-4,-5,1,-1
18:52:24.132123,-3,3,-1,-1,6,0,0,-1
18:52:24.132123,-2,-3,-1,2,6,2,4,3
18:52:24.154110,-7,-4,-4,-4,-2,-3,-6,-9
18:52:24.155109,0,-2,-5,-8,-4,1,-1,-3
18:52:24.169104,1,0,-1,-1,5,2,1,1
18:52:24.170099,3,-2,1,-2,-2,-3,-2,-5
18:52:24.192086,-4,-3,0,3,2,2,0,-4
18:52:24.192086,-2,-5,-3,-2,-1,-1,-4,-4
18:52:24.215071,0,-4,-5,-2,1,0,6,-3
18:52:24.215071,-3,0,-1,0,0,-3,3,-1
18:52:24.229066,0,-1,0,-1,1,0,-15,-2
18:52:24.230063,-2,0,-4,0,-4,-2,2,-2
18:52:24.259047,-2,-2,-5,-1,-3,0,-3,0
18:52:24.260043,-3,0,1,2,1,2,1,2
18:52:24.274039,-6,-2,-1,-1,0,-1,-3,-3
18:52:24.275044,-3,-2,-1,1,-1,-1,2,-4
18:52:24.289033,4,3,2,0,1,-2,-1,-1
18:52:24.290025,1,1,1,1,1,1,4,0
18:52:24.312015,-1,3,-2,0,-1,3,4,-3
18:52:24.313012,0,-1,-1,1,2,-1,0,-1
18:52:24.334997,-2,-3,0,0,-1,-1,1,-1
18:52:24.336000,-3,-1,-3,-2,0,-3,4,1
18:52:24.356987,1,-3,2,-2,-2,-1,-8,-3
18:52:24.357984,3,2,0,-1,-1,-5,1,2
18:52:24.371977,-5,-4,-1,0,2,-2,-5,-5
18:52:24.372974,-4,-2,0,-2,0,-2,-6,-5
18:52:24.394963,0,-1,-1,-4,-1,-3,-1,2
18:52:24.395961,-4,-1,-3,-3,-3,-2,-1,1
