timestamp,emg1,emg2,emg3,emg4,emg5,emg6,emg7,emg8
15:24:19.159759,0,2,-3,3,2,0,-1,-3
15:24:19.159759,-3,-4,-3,1,1,1,-2,0
15:24:19.159759,2,0,-1,0,0,0,-1,0
15:24:19.173750,-3,-5,0,-1,-1,0,0,-2
15:24:19.180748,-4,0,-3,-1,-3,-3,0,-1
15:24:19.195737,-1,-2,-1,-2,-8,0,-3,-4
15:24:19.203730,-4,-3,-2,-1,-5,3,-2,-3
15:24:19.210728,-4,-2,0,2,3,-2,-1,1
15:24:19.218720,0,-2,-3,-2,-2,-3,-1,0
15:24:19.233711,1,-1,-1,-2,1,0,-3,0
15:24:19.240710,0,-1,-2,-2,2,-3,1,-1
15:24:19.255700,0,-1,-1,-2,-2,-1,1,-3
15:24:19.263693,0,0,0,2,3,-5,0,0
15:24:19.270730,2,0,-3,-5,-1,0,-3,2
15:24:19.286680,0,-1,1,-1,-1,-2,1,-4
15:24:19.300721,-1,-1,-3,2,1,-1,-2,2
15:24:19.301669,-1,-4,-2,-1,-6,-4,-4,-3
15:24:19.315675,2,2,0,2,9,3,-2,-1
15:24:19.323656,0,-4,-2,-3,-5,-4,1,0
15:24:19.330673,0,-3,1,-1,-4,-1,-3,0
15:24:19.345644,-2,0,-2,0,5,4,0,0
15:24:19.353649,0,0,-1,-4,-4,0,1,-2
15:24:19.360635,1,2,0,1,-1,-3,-2,-1
15:24:19.383619,3,-1,0,0,-4,-2,-2,1
15:24:19.383619,-3,-1,-4,-1,-3,-3,-1,-2
15:24:19.390617,0,-1,-2,-3,0,0,-2,0
15:24:19.405607,0,-2,-3,-2,-1,0,-3,-1
15:24:19.413599,0,1,-1,0,-3,1,1,-1
15:24:19.420598,-3,-4,-4,-4,-4,1,-2,-5
15:24:19.435587,-1,-1,-1,-2,-3,-2,1,-1
15:24:19.444581,-3,1,-1,-3,-2,-2,0,-2
15:24:19.450581,-2,-2,0,-3,-1,1,-1,-1
15:24:19.465579,0,-4,-1,-1,-1,1,0,0
15:24:19.473563,2,0,-1,1,1,1,0,0
15:24:19.488553,0,-2,2,-2,-1,-1,-2,-1
15:24:19.495551,-1,1,-4,0,3,-1,2,1
15:24:19.503545,-3,0,-2,-3,-4,0,-3,-3
15:24:19.510549,-2,2,0,3,-1,-2,-1,0
15:24:19.526529,0,-2,0,0,0,-3,0,-3
15:24:19.533526,-1,3,1,-1,-3,-2,-3,0
15:24:19.541521,-3,-1,0,-1,2,1,-1,-2
15:24:19.557511,0,0,1,-3,-6,-2,-2,-2
15:24:19.563509,-2,-1,-1,1,0,-2,-3,-1
15:24:19.571503,-1,2,-3,-2,0,-3,-2,-3
15:24:19.587492,0,0,0,1,-2,0,0,-2
15:24:19.593490,-4,-1,-1,-3,-1,0,-2,-2
15:24:19.606481,-3,-1,-1,2,0,-1,1,0
15:24:19.616476,-1,-2,-1,-3,1,0,-1,-1
15:24:19.625469,1,3,-1,6,4,3,0,1
15:24:19.638460,-2,3,-1,-1,0,-2,-2,-1
15:24:19.646459,0,0,0,-1,-7,-1,-3,-4
15:24:19.653461,0,0,-6,-2,-2,0,0,-3
15:24:19.668442,-1,-1,0,2,1,3,-2,0
15:24:19.676438,-1,-1,-1,-2,-1,-1,-3,-2
15:24:19.683433,1,0,0,0,-2,-5,-3,4
15:24:19.692429,-1,1,-1,-2,-1,-2,0,-1
15:24:19.710421,0,0,3,0,1,-1,-5,-4
15:24:19.714415,1,3,-3,1,1,-2,-2,-3
15:24:19.721410,0,-3,-2,-2,-4,-6,-2,-1
15:24:19.739399,-2,-1,-3,-2,0,0,-5,-4
15:24:19.743397,-1,0,-1,-1,0,0,1,-1
15:24:19.751391,-2,0,1,-1,1,-1,-3,-1
15:24:19.766381,-1,-1,0,2,-1,-2,-3,1
15:24:19.773378,-3,3,-1,-2,0,1,-3,-1
15:24:19.781374,1,1,-1,-2,2,0,3,0
15:24:19.796363,-3,-1,2,1,-1,-1,-1,0
15:24:19.803359,-1,0,0,-1,-2,0,0,1
15:24:19.811353,-4,1,-2,1,-3,0,-1,-4
15:24:19.827345,1,3,6,4,9,4,4,3
15:24:19.841334,-3,-2,1,-1,-2,-2,-1,-1
15:24:19.842337,0,-5,-3,-4,-7,-3,2,0
15:24:19.856329,0,-3,-2,-2,1,1,-3,-2
15:24:19.863321,-2,0,1,1,0,0,-2,-1
15:24:19.921286,-2,0,-3,-1,-3,-3,-2,1
15:24:19.922285,-1,-1,-2,1,-3,1,-3,-2
15:24:19.922285,-3,0,0,1,-1,2,-1,0
15:24:19.922285,0,0,1,-1,-1,-1,1,-1
15:24:19.923285,-3,0,-4,-2,-3,-4,-1,1
15:24:19.925284,0,0,-1,0,-1,-1,1,2
15:24:19.962262,1,-1,-1,-1,-3,-2,-5,1
15:24:19.964259,0,-3,-2,-3,-2,1,1,-3
15:24:19.969256,0,2,-1,1,1,0,2,-2
15:24:19.969256,-1,-3,-3,-4,-1,0,0,2
15:24:19.982249,2,-1,-2,1,-1,-5,-1,1
15:24:19.983246,0,1,-1,-3,-2,0,0,1
15:24:20.008234,-3,0,-3,-1,-1,0,1,-7
15:24:20.010232,1,-1,-2,-1,-4,2,1,1
15:24:20.014228,-3,0,-1,-2,3,1,0,0
15:24:20.021223,-3,-4,0,4,1,3,-2,0
15:24:20.036214,-2,1,0,0,2,0,-2,1
15:24:20.043209,-1,0,0,-3,-2,-1,-4,-6
15:24:20.058200,-1,0,1,0,-4,-3,-3,-1
15:24:20.066195,-1,-1,-1,-1,1,-1,4,1
15:24:20.081185,1,1,-2,-1,1,-2,-4,-5
15:24:20.089181,-1,0,1,0,3,3,0,-2
15:24:20.096176,2,2,1,0,-1,-1,-1,1
15:24:20.103174,-1,0,-4,1,1,-2,-1,2
15:24:20.120163,-2,-2,-2,-3,-2,0,0,0
15:24:20.126158,0,0,0,2,-1,1,-2,2
15:24:20.141149,-4,-2,-1,-2,-2,-2,-1,-1
15:24:20.148146,-1,1,0,6,8,4,3,3
15:24:20.156141,-1,-1,1,-1,-2,1,-1,-4
15:24:20.163136,-2,0,-3,0,-2,2,2,3
15:24:20.178127,1,0,1,3,0,-4,-1,2
15:24:20.193120,-2,-4,-2,-1,2,-1,-3,1
15:24:20.216102,-1,0,0,0,-2,-4,-1,-2
15:24:20.216102,-5,-1,-1,-1,-3,2,-3,-2
15:24:20.217104,3,-1,2,2,5,3,3,4
15:24:20.223103,-3,-2,-4,-2,-1,-1,0,0
15:24:20.238091,1,-1,-1,3,3,-7,-1,0
15:24:20.246084,-3,-4,-3,0,2,1,1,-1
15:24:20.261075,2,-3,0,2,0,-2,0,1
15:24:20.268070,-1,-4,-2,1,1,1,0,2
15:24:20.276065,-1,-1,0,-2,-5,-2,-1,-1
15:24:20.283062,-1,-2,-1,0,0,-4,1,2
15:24:20.298072,-1,0,1,-1,5,0,-1,1
15:24:20.306048,-3,-3,-1,0,-2,-3,-1,-2
15:24:20.321038,0,-1,3,0,0,-2,0,-3
15:24:20.328038,-3,-4,-3,-5,2,1,1,0
15:24:20.343022,0,-1,1,-2,4,-1,-1,-5
15:24:20.344024,-1,-3,-5,-2,-4,-1,0,3
15:24:20.359025,-1,2,3,0,3,0,3,-1
15:24:20.366010,-1,0,-3,-1,3,-1,-3,1
15:24:20.380999,-2,0,-1,1,0,0,-3,-4
15:24:20.388996,0,0,-1,-1,1,1,-1,-3
15:24:20.403986,-1,-2,-1,-2,0,3,-2,1
15:24:20.403986,-4,-4,0,-2,-2,1,0,0
15:24:20.417977,-2,-3,-3,-4,-3,0,-1,-1
15:24:20.425973,-1,-2,-2,-2,1,2,1,1
15:24:20.440963,2,-1,1,1,0,0,-1,-4
15:24:20.447960,-3,-3,-2,-2,0,1,-1,4
15:24:20.470946,1,0,-2,-1,1,0,-1,-3
15:24:20.470946,0,1,1,1,0,1,1,3
15:24:20.477941,1,0,-2,0,-2,-1,-2,-2
15:24:20.485935,-1,-2,0,0,0,-2,-3,1
15:24:20.500925,0,-2,0,-1,-3,-5,-3,-3
15:24:20.508920,0,-1,-1,-4,0,1,-3,1
15:24:20.522915,-3,-1,-1,-2,-2,-1,2,-2
15:24:20.523912,1,-1,2,1,1,5,2,2
15:24:20.538903,-1,-3,-2,-2,3,1,-1,1
15:24:20.545898,-4,-3,-2,-1,-2,1,0,0
15:24:20.560888,-2,-3,-3,-5,0,2,1,-3
15:24:20.567885,-4,1,0,-1,5,0,-1,0
15:24:20.582877,-3,0,0,-3,0,-3,-2,-1
15:24:20.583880,0,1,1,0,-2,0,1,-1
15:24:20.598865,1,-1,-1,1,1,3,1,0
15:24:20.605860,-4,-3,0,-2,2,0,-1,0
15:24:20.620852,-1,-2,-4,0,-2,0,-2,-5
15:24:20.627849,-2,1,0,1,2,1,-1,0
15:24:20.643837,-5,-4,1,0,-1,1,0,-3
15:24:20.643837,0,0,-3,2,-2,1,-1,0
15:24:20.658835,-2,-1,-2,0,-1,-1,1,-2
15:24:20.665824,-3,-1,2,0,-5,-2,0,1
15:24:20.680815,0,-1,-2,-4,-2,1,0,-1
15:24:20.688810,-2,-3,-2,-3,2,2,-2,0
15:24:20.703799,-2,0,1,-2,0,0,1,0
15:24:20.703799,-1,0,-3,-1,-1,2,1,1
15:24:20.718791,0,1,1,3,2,1,0,-1
15:24:20.740776,-3,2,-2,-1,4,1,1,4
15:24:20.741785,-2,0,0,-2,0,-2,-1,-2
15:24:20.747785,1,-3,-1,2,0,1,0,0
15:24:20.770764,-4,-4,-4,-5,-7,-4,-4,-4
15:24:20.771773,1,-2,1,2,0,-1,-2,-2
15:24:20.778754,-2,-2,-3,0,-3,0,-1,-1
15:24:20.785748,-1,-1,-1,0,2,-1,-2,2
15:24:20.800746,-3,0,-3,1,0,-1,0,-4
15:24:20.808736,-1,-1,-1,-3,-4,-1,0,-1
15:24:20.823733,-2,0,-1,0,3,4,-1,2
15:24:20.823733,0,-1,-3,1,-1,-1,1,1
15:24:20.838717,-2,0,0,-3,-4,-3,-3,-3
15:24:20.853708,-2,0,1,0,4,2,0,-1
15:24:20.860707,-2,-3,-2,-1,2,0,-2,-1
15:24:20.868697,-4,-3,1,1,0,-2,-3,-3
15:24:20.883689,0,-1,-2,-2,-2,-1,0,-2
15:24:20.883689,-3,0,1,0,-1,-2,-4,0
15:24:20.898679,-2,-2,1,2,-3,-1,-1,-2
15:24:20.905677,-2,-3,-1,-3,-4,-1,-2,-3
15:24:20.920668,-2,1,-2,-3,-5,-2,0,-1
15:24:20.928661,1,-3,-1,-1,0,1,1,1
15:24:20.943652,-2,1,0,-3,-3,-1,-3,1
15:24:20.943652,0,-1,0,-3,2,2,4,-1
15:24:20.958642,0,-1,0,0,-4,0,-3,-3
15:24:20.965638,1,0,1,3,1,-1,1,-4
15:24:20.980651,-1,-2,-1,0,-1,-1,-2,-1
15:24:20.988624,0,-3,0,-2,-4,-1,-1,3
15:24:21.003613,-3,-1,-1,-4,-1,-1,-2,-2
15:24:21.003613,-3,-2,-3,-1,-4,0,-2,1
15:24:21.018605,0,-2,-1,1,5,0,-1,-2
15:24:21.025602,1,-4,0,-1,1,3,1,3
15:24:21.040592,-1,-4,-1,-6,-5,-3,-5,-4
15:24:21.048587,1,-3,1,0,0,-2,-1,-2
15:24:21.071572,0,0,0,2,-3,3,-1,0
15:24:21.071572,0,-4,-4,-5,-1,-2,-1,-2
15:24:21.078567,-1,0,-2,-1,-4,-1,0,-1
15:24:21.088562,2,0,-2,1,2,1,-1,0
15:24:21.101554,-1,-1,-1,-5,-2,-2,-3,-3
15:24:21.126539,-3,-3,-3,-1,-5,-1,0,1
15:24:21.126539,-1,2,2,5,3,0,-2,-3
15:24:21.127538,-1,-4,-3,-2,0,-1,-1,-3
15:24:21.139547,-1,-1,-1,1,-1,-1,-1,-1
15:24:21.146525,-1,-1,-3,3,2,-2,1,2
15:24:21.161516,-3,0,-1,-3,-3,-1,-1,0
15:24:21.168513,-2,0,0,0,-2,0,-3,0
15:24:21.191497,-4,-2,2,-3,-1,-1,0,1
15:24:21.191497,0,-1,-2,-1,2,1,-1,-1
15:24:21.198494,0,1,0,1,2,1,2,0
15:24:21.206489,0,-3,-5,-3,-3,-2,0,-2
15:24:21.222478,0,-3,-1,2,-1,-1,-1,2
15:24:21.228475,-1,2,4,2,3,1,4,2
15:24:21.243465,3,-1,0,2,-3,-4,0,1
15:24:21.251461,0,-1,0,0,-3,-3,-1,1
15:24:21.266454,0,-1,-1,-2,-5,-4,-1,-2
15:24:21.267453,-2,-2,-2,-1,0,-1,-2,-3
15:24:21.281443,-1,1,-1,-1,-2,-1,-3,-3
15:24:21.288438,1,-1,-1,0,1,-4,-2,1
15:24:21.307427,-5,-2,-1,1,-1,-3,1,0
15:24:21.311426,-1,-1,-1,-3,-1,0,0,1
15:24:21.327414,0,0,-2,-5,-4,0,-1,0
15:24:21.327414,-4,-5,4,0,-2,2,-1,0
15:24:21.341404,-2,1,0,0,-3,-3,-2,-3
15:24:21.348401,1,-5,-2,1,2,1,2,-2
15:24:21.373386,-3,-4,-3,0,-5,-2,-3,-4
15:24:21.373386,-1,-4,-3,-4,0,1,-1,-2
15:24:21.386377,-1,-1,-5,-2,0,-2,-3,0
15:24:21.396370,-1,-1,-2,-4,0,0,1,1
15:24:21.401368,-1,-2,0,-3,-5,-1,0,-1
15:24:21.409363,-3,-3,1,3,1,-5,2,3
15:24:21.423353,0,-1,-2,0,-1,1,-2,-2
15:24:21.477320,-2,-2,-1,-1,0,2,2,0
15:24:21.477320,-1,-1,1,-2,-3,-1,1,-5
15:24:21.477320,0,0,-2,-5,-5,-3,-1,0
15:24:21.477320,-3,-3,-2,18,9,-2,-1,-1
15:24:21.477320,-3,1,0,4,6,-1,1,0
15:24:21.484317,-5,0,1,-2,-13,0,0,0
15:24:21.532287,0,-2,-1,-2,0,0,-2,2
15:24:21.543280,1,-3,0,-2,-1,1,0,2
15:24:21.544280,0,1,-2,-1,0,0,-1,0
15:24:21.545279,2,0,-1,-1,2,3,1,-1
15:24:21.545279,-1,-1,2,-2,-5,-1,-2,1
15:24:21.548278,0,0,-1,-1,1,0,0,-2
15:24:21.552277,2,0,0,1,0,2,2,0
15:24:21.577258,0,-2,-2,-2,-1,-4,-3,-1
15:24:21.577258,0,-2,0,-1,1,-4,-1,0
15:24:21.581258,0,-1,-1,-2,1,-1,0,-2
15:24:21.588252,-2,0,0,-1,-3,0,-5,0
15:24:21.606241,-3,1,-1,-1,-3,-2,0,-1
15:24:21.611237,-1,-1,0,-1,-4,-6,-2,1
15:24:21.626230,-2,-2,-2,1,0,-2,0,-2
15:24:21.627228,-1,1,-2,0,-1,-1,0,0
15:24:21.641219,-4,1,-3,-2,1,2,0,-1
15:24:21.648215,-4,-2,0,-3,0,-2,1,-2
15:24:21.663205,1,1,-1,-1,0,-3,2,1
15:24:21.671200,-1,1,-2,-5,-6,-3,-2,1
15:24:21.686191,-2,-1,-1,2,-3,-2,2,-1
15:24:21.686191,-1,0,-1,-4,-3,0,0,-2
15:24:21.701182,-4,-2,-3,1,4,1,-1,1
15:24:21.708178,-1,1,-3,-2,2,0,0,0
15:24:21.723169,-2,1,-2,2,-1,0,-1,-1
15:24:21.731163,-3,-3,-1,-2,-4,-3,-1,2
15:24:21.745155,1,-3,1,-1,-1,-1,1,-1
15:24:21.746154,-2,-1,-1,1,1,-1,-2,0
15:24:21.761144,2,-3,0,0,0,0,3,0
15:24:21.768141,0,-1,0,-1,-1,-2,1,1
15:24:21.791126,-2,-2,-2,-1,-4,-1,-2,-1
15:24:21.791126,-5,-1,-1,-2,3,1,0,-5
15:24:21.806117,-3,0,-2,-3,-5,-1,2,0
15:24:21.806117,3,1,0,-2,1,-3,2,-1
15:24:21.821109,1,-1,-3,-2,0,-1,1,-2
15:24:21.828107,2,0,0,-2,-1,-2,0,-4
15:24:21.843096,0,1,-3,1,-3,1,2,-1
15:24:21.851096,-2,-3,1,0,2,0,-1,1
15:24:21.866080,3,0,-4,1,2,-1,-2,1
15:24:21.866080,-2,0,-1,-3,-3,-3,-1,-2
15:24:21.881070,-1,0,2,2,1,-2,-3,-3
15:24:21.888070,-3,-1,-4,-2,-4,-2,-2,-2
15:24:21.903059,0,2,-1,0,0,4,1,0
15:24:21.911051,-6,-1,-3,-4,-2,-4,-4,-3
15:24:21.926042,-1,-4,-2,0,-1,1,0,-3
15:24:21.926042,-1,2,-3,-1,0,1,1,-2
15:24:21.941033,0,2,1,0,0,-1,1,2
15:24:21.948029,1,0,1,0,2,-1,0,1
15:24:21.963021,1,-1,0,2,1,0,1,-3
15:24:21.971014,-1,1,-1,2,6,3,2,0
15:24:21.986006,-1,-6,-4,-2,0,2,0,-3
15:24:21.986006,-2,0,-2,2,3,-1,-1,0
15:24:22.000996,1,2,2,-1,-1,-3,-4,0
15:24:22.008016,-4,0,-2,-1,1,-2,3,-2
15:24:22.022984,-3,-3,-3,-2,-2,0,3,-3
15:24:22.030983,2,0,2,6,7,5,1,2
15:24:22.045968,-2,-1,-4,0,-1,-3,-3,-1
15:24:22.046966,-1,-1,-3,-3,-3,1,-3,-1
15:24:22.060957,-1,2,0,0,-2,0,0,-1
15:24:22.067954,2,-4,-1,-1,-1,0,-4,0
15:24:22.090939,0,-2,2,1,0,0,0,0
15:24:22.090939,2,2,-1,2,10,3,4,1
15:24:22.105929,1,0,-3,-1,1,-3,2,-1
15:24:22.120920,-3,-1,1,-1,0,-1,2,-2
15:24:22.120920,-1,-1,0,-1,3,1,-1,1
15:24:22.127919,-1,0,-2,-4,-2,0,1,-1
15:24:22.150905,-1,0,0,0,1,-4,0,2
15:24:22.151902,2,1,0,1,-4,-1,0,0
15:24:22.165897,1,0,-1,-5,-2,-5,-4,0
15:24:22.173888,0,-1,-1,0,1,2,1,-1
15:24:22.181883,-2,-1,-1,-3,-3,1,-3,0
15:24:22.188882,2,-4,-2,-3,2,3,1,-1
15:24:22.203873,-3,2,2,0,1,0,-2,-3
15:24:22.210868,-4,-2,0,-1,0,1,-3,1
15:24:22.225856,-1,-1,4,3,6,-1,1,0
15:24:22.241846,-4,-3,-2,-3,-2,-2,0,-3
15:24:22.248844,2,3,1,3,1,4,3,1
15:24:22.248844,-1,-4,0,2,0,1,0,-2
15:24:22.263835,-2,-1,0,-1,-3,-1,1,0
15:24:22.271827,-3,-2,3,-1,0,-1,-2,-1
15:24:22.285820,0,-2,-2,-2,-2,0,1,-3
15:24:22.293816,-1,-1,3,0,3,1,0,3
15:24:22.308807,1,0,0,-3,-1,-2,0,0
15:24:22.308807,-1,-2,1,0,2,2,1,5
15:24:22.323798,1,-2,-1,0,-3,0,-1,-2
15:24:22.331794,0,-1,0,1,1,-4,-2,-2
15:24:22.346781,0,-1,1,-3,-2,-1,-2,-3
15:24:22.353777,-3,-2,-1,6,5,-2,1,2
15:24:22.368769,-3,-3,-5,-1,-3,-1,-1,-2
15:24:22.369767,-1,-1,-1,-1,-1,0,-4,3
15:24:22.383761,-2,2,-2,-1,0,-3,0,-1
15:24:22.398751,0,0,0,-4,-4,0,-1,0
15:24:22.421736,1,0,-2,0,-4,-3,-3,-2
15:24:22.421736,-1,-2,-4,-2,-1,-3,-2,-1
15:24:22.428733,0,0,-2,-3,0,0,-1,-1
15:24:22.429732,-1,-1,1,1,-2,0,-3,-2
15:24:22.443724,0,2,-2,-1,-1,0,2,-2
15:24:22.451716,-3,1,-2,0,2,-3,0,-2
15:24:22.465709,-4,-3,-1,-4,1,-2,0,1
15:24:22.473704,0,-2,-1,1,3,1,-1,-3
15:24:22.488695,0,2,-1,-1,-2,-1,0,0
15:24:22.488695,0,-2,-2,-1,-2,-2,-2,0
15:24:22.503683,-3,-2,-4,-1,0,0,-1,-3
15:24:22.510681,-2,1,-1,-1,-1,-2,0,-1
15:24:22.526670,-2,2,-4,-3,1,2,-3,2
15:24:22.533667,-2,0,2,1,-1,0,3,-2
15:24:22.548658,1,0,0,-2,-4,1,0,-2
15:24:22.549657,-2,-1,-3,-1,1,0,-1,2
15:24:22.563648,-2,-3,-1,1,-4,-4,-2,-2
15:24:22.571644,-2,-4,2,-1,0,-3,-2,-2
15:24:22.586635,-2,1,-1,0,0,-1,-2,1
15:24:22.608621,2,-3,-1,0,-3,-1,-2,3
15:24:22.609621,-3,-3,-1,-1,0,-4,-2,-2
15:24:22.609621,-1,0,-2,-1,-4,-4,-4,-3
15:24:22.623612,-1,-3,-1,-1,0,5,-1,-1
15:24:22.638599,0,-1,3,2,-2,0,1,-2
15:24:22.646599,0,0,-4,-2,-2,-1,-3,-5
15:24:22.653591,-3,0,-3,-1,-3,-2,-5,-2
15:24:22.668584,0,-3,-2,0,-1,0,0,0
15:24:22.669581,-1,1,0,-2,-1,-1,-2,-2
15:24:22.683575,-2,0,-2,1,-2,0,-3,0
15:24:22.691570,2,-2,-2,0,1,-1,-2,1
15:24:22.706561,0,0,0,0,1,2,-3,-4
15:24:22.713556,1,-3,-4,-1,-1,0,0,-1
15:24:22.728547,0,1,1,-1,-3,-3,-3,0
15:24:22.729545,3,-3,-2,0,0,-3,-1,1
15:24:22.751530,3,-1,0,1,-1,-2,-1,-1
15:24:22.752530,-3,-2,0,-2,0,-1,0,1
15:24:22.766523,-2,-1,-2,0,0,-3,0,-2
15:24:22.773518,0,-1,-2,-2,3,1,0,0
15:24:22.788509,-1,-3,-3,-3,-1,1,0,-2
15:24:22.789506,-2,-1,-3,1,0,0,4,2
15:24:22.811493,1,-2,-2,0,-4,-2,1,1
15:24:22.811493,-2,-2,0,3,0,2,-3,-1
15:24:22.826485,1,-1,-1,-2,-1,-1,0,-2
15:24:22.833481,0,0,-2,0,0,1,1,2
15:24:22.848472,1,-2,-1,-1,-2,0,-3,1
15:24:22.849472,-2,1,-2,-1,-4,-1,-1,-2
15:24:22.863462,-3,1,-4,-1,0,-4,1,-5
15:24:22.871458,-1,-2,0,-2,1,0,0,2
15:24:22.886446,0,1,0,-1,0,-2,2,0
15:24:22.893444,-1,-3,0,-1,-2,-3,-2,-1
15:24:22.908435,-1,-1,-1,-3,0,1,-3,0
15:24:22.909434,-1,-1,0,2,-2,-3,0,-1
15:24:22.923423,0,0,-3,-3,1,-1,-1,0
15:24:22.931421,-2,0,-4,0,1,0,-3,-4
15:24:22.946409,-1,-2,1,0,3,3,-1,1
15:24:22.954406,-4,-3,-1,-1,-1,-1,-2,-1
15:24:22.976390,1,0,-2,0,-2,-2,-1,-1
15:24:22.976390,-2,-1,0,-3,0,4,0,1
15:24:22.983386,-2,-2,-1,1,5,3,0,0
15:24:22.998378,-2,2,2,0,-1,-1,-2,-1
15:24:23.013370,-2,1,-2,0,-4,-2,-3,0
15:24:23.014370,1,-2,-1,-1,0,0,-3,1
15:24:23.028358,1,-3,1,0,0,0,0,-1
15:24:23.036355,-4,-1,-2,-4,0,-2,0,-1
15:24:23.051343,2,0,-1,0,0,-4,-2,-2
15:24:23.051343,-2,-1,-1,0,0,1,1,2
15:24:23.066335,1,0,1,1,-2,-4,-2,-2
15:24:23.073330,-3,-4,-3,-3,-1,-1,-3,1
15:24:23.088322,1,-1,-2,-1,0,4,-3,0
15:24:23.096319,-4,-1,-4,-3,-2,0,2,2
15:24:23.111310,-1,-1,-3,-4,-4,0,0,0
15:24:23.112308,1,-1,0,-2,-2,-6,0,0
15:24:23.126297,-2,1,-2,-1,0,1,-2,-2
15:24:23.133294,-1,-2,-3,-1,-1,1,-1,2
15:24:23.148286,0,0,-1,-5,-3,-3,0,-2
15:24:23.156282,-3,-2,1,-2,-3,1,-1,0
15:24:23.171272,-3,-1,1,-1,-3,2,0,-3
15:24:23.172269,1,-4,-4,0,2,1,1,2
15:24:23.186261,-1,-2,0,-26,-11,-1,1,-1
15:24:23.193256,-2,-3,1,5,0,1,1,1
15:24:23.208250,-1,-2,0,2,2,-1,-2,0
15:24:23.216245,-2,-3,-2,-1,1,-1,0,-1
15:24:23.231235,0,0,-2,-3,-3,4,-3,0
15:24:23.232235,-3,0,0,0,0,-3,0,-2
15:24:23.246226,0,-2,0,2,-1,-1,-1,-1
15:24:23.261217,0,-1,-2,-2,-2,-1,-2,1
15:24:23.268212,2,-1,-1,-3,-1,-1,-3,1
15:24:23.276207,-3,-1,0,-1,2,0,-2,-2
15:24:23.291198,-1,-1,1,-2,1,0,-1,-2
15:24:23.292202,-1,-1,0,0,0,-1,-1,1
15:24:23.306188,-3,-4,0,2,-4,3,0,-1
15:24:23.313185,-3,-3,1,0,1,-1,-1,-1
15:24:23.343165,-1,2,1,-2,-3,-2,-1,1
15:24:23.344162,0,0,-1,-1,0,-1,1,-1
15:24:23.351160,-1,-1,-2,1,1,-1,0,-2
15:24:23.352158,0,2,-2,2,1,2,0,3
15:24:23.366151,-3,1,2,0,-1,-2,-1,0
15:24:23.374145,-6,-2,-1,-1,1,0,-3,0
15:24:23.389138,4,-1,-2,-1,-1,-4,-1,-3
15:24:23.396133,2,-3,-2,0,-1,-2,-1,0
15:24:23.411124,-2,-3,0,-1,-1,-1,1,-4
15:24:23.412124,-1,-2,-2,1,-1,0,-5,0
15:24:23.433110,1,1,-1,0,-5,-1,1,-1
15:24:23.434106,-4,2,-4,-1,0,-4,-2,-1
15:24:23.448100,2,0,1,0,0,2,0,0
15:24:23.456096,-3,-2,-5,0,-1,-1,-1,-1
15:24:23.471086,0,2,-1,-2,-4,-3,-2,-3
15:24:23.472086,-1,-2,2,2,0,-2,1,1
15:24:23.486076,1,0,0,1,-1,-3,1,-2
15:24:23.493074,-4,-2,1,-1,1,-3,2,-2
15:24:23.509060,-2,3,0,-4,-8,-1,-2,-5
15:24:23.524054,0,-1,-3,-3,1,1,0,0
15:24:23.531047,-2,0,0,3,10,3,0,0
15:24:23.532048,-3,-1,-1,-3,1,3,1,1
15:24:23.546040,-1,-3,-1,-2,1,3,2,1
15:24:23.554035,1,-3,0,-5,-4,0,2,0
15:24:23.569022,0,0,1,4,13,7,2,2
15:24:23.576021,-3,-2,-5,-37,-15,-4,1,0
15:24:23.591012,-2,0,3,37,14,3,-1,-1
15:24:23.592011,1,-1,-2,-19,6,-6,0,1
15:24:23.606000,-4,-4,2,16,7,-2,-4,-3
15:24:23.613995,-2,-2,-2,9,17,5,1,4
15:24:23.628988,3,3,2,11,-5,4,1,1
15:24:23.635983,-3,-4,0,1,-15,-5,-2,-2
15:24:23.650975,0,-1,0,1,30,6,2,2
15:24:23.651974,2,0,2,6,6,1,2,0
15:24:23.665966,-1,-2,5,3,-29,-8,-2,-5
15:24:23.673961,-1,3,-6,-13,34,4,2,4
15:24:23.688952,-4,-5,-2,11,59,2,-3,-6
15:24:23.695947,-2,4,4,8,-31,-10,0,2
15:24:23.710938,6,8,-21,-98,-98,6,3,5
15:24:23.711937,-6,-5,1,-29,101,-1,-2,-5
15:24:23.725925,-3,0,-50,-48,55,-3,-1,0
15:24:23.740919,-11,-12,6,127,127,14,-5,-15
15:24:23.755910,5,7,-40,-75,105,-19,6,4
15:24:23.756910,-9,-2,91,127,127,17,-8,-11
15:24:23.770901,17,5,-67,-22,-128,-19,14,18
15:24:23.771897,6,16,-8,127,-44,-16,3,5
15:24:23.785891,-21,-28,46,127,-128,-128,-29,-17
15:24:23.793884,20,51,127,36,127,92,15,4
15:24:23.808874,28,-15,-128,-128,-128,-82,16,35
15:24:23.815872,-79,-95,-25,127,127,0,-46,-69
15:24:23.830863,69,126,127,127,-128,30,44,48
15:24:23.831863,-41,-111,-114,-128,127,-26,-38,-27
15:24:23.845855,54,118,31,-128,-128,39,38,38
15:24:23.853849,-84,-113,-60,127,103,-91,-58,-70
15:24:23.868840,42,68,17,85,127,62,31,31
15:24:23.875836,10,-3,-44,-128,60,-20,7,26
15:24:23.890825,17,12,-60,68,127,26,12,3
15:24:23.891825,17,15,-1,-96,102,-59,1,16
15:24:23.906816,-32,-21,85,127,127,-33,-19,-25
15:24:23.913809,13,6,-11,-116,105,21,13,11
15:24:23.928803,17,24,10,-45,-20,14,12,13
15:24:23.935800,33,46,59,67,-128,-3,15,24
15:24:23.951788,-32,-83,-44,84,127,30,0,-11
15:24:23.951788,14,26,-4,-97,-40,26,9,1
15:24:23.965779,-1,-28,-7,-14,-15,16,13,12
15:24:23.973774,1,6,37,-12,-1,-4,-1,-3
15:24:23.995759,-25,-32,-40,-128,-128,-46,-8,-11
15:24:23.996760,-5,0,-29,-7,41,-20,-6,-8
15:24:24.011751,11,28,8,32,-23,-43,-2,5
15:24:24.033734,11,27,-21,-105,-85,-48,-13,-9
15:24:24.033734,-37,-43,-3,-29,-109,-27,-17,-18
15:24:24.034734,-27,-46,-41,-63,88,-23,-12,-6
15:24:24.048728,28,63,51,40,-6,-11,-6,-4
15:24:24.055735,14,44,31,-60,-104,-11,10,8
15:24:24.071714,-35,-47,-59,-20,-13,-14,-1,-8
15:24:24.078710,-18,-40,-8,59,127,38,5,-2
15:24:24.093700,-8,-16,28,127,-128,6,0,0
15:24:24.094700,-19,-39,16,103,127,43,4,-4
15:24:24.108691,-1,-12,-47,-128,-74,-19,-2,-5
15:24:24.115686,-25,-55,-34,43,-22,-13,-3,-7
15:24:24.131677,-24,-43,-8,13,61,55,2,-2
15:24:24.138673,2,13,2,-117,-61,-10,-4,-3
15:24:24.153663,2,10,3,2,33,13,3,4
15:24:24.154663,2,-2,33,127,127,85,7,6
15:24:24.168654,-3,-11,-39,-111,-99,-13,-2,-2
15:24:24.176646,-14,-12,-13,5,21,-5,-7,-8
15:24:24.190640,-2,-6,-18,59,9,-11,-3,1
15:24:24.206627,6,6,-18,-101,67,-8,3,6
15:24:24.213626,-2,10,12,15,98,43,1,-6
15:24:24.214625,-6,-8,-24,-45,-7,34,-2,-3
15:24:24.228616,-13,-16,-11,-16,-43,-11,-3,-1
15:24:24.236612,6,10,-14,-73,-17,-10,1,6
15:24:24.251599,2,8,-17,-128,-128,-47,-1,-2
15:24:24.266593,-32,-55,-60,-108,-75,-29,-12,-15
15:24:24.280584,-25,-30,-12,-10,-22,21,-15,-19
15:24:24.281582,18,35,16,7,4,-2,9,9
15:24:24.288579,-4,-5,0,106,127,45,3,0
15:24:24.296571,-8,-25,-51,-107,-128,-25,-3,-4
15:24:24.311565,-4,-2,8,72,36,4,0,1
15:24:24.318561,11,14,15,25,-128,-61,2,3
15:24:24.333551,4,10,10,-95,68,10,1,1
15:24:24.334551,-17,-18,-28,-36,-19,-24,-7,-8
15:24:24.356534,5,11,53,127,36,25,5,5
15:24:24.356534,11,9,-8,-30,24,8,1,6
15:24:24.371528,-4,-12,21,44,11,38,2,0
15:24:24.378524,9,22,50,77,82,10,2,6
15:24:24.393515,-8,-16,-25,-128,37,25,-3,-6
15:24:24.394514,11,17,18,14,10,-6,-2,0
15:24:24.408505,-15,-23,-26,-8,29,7,-3,-1
15:24:24.416500,-3,12,44,92,20,-13,-1,-3
15:24:24.431491,-17,-31,-33,18,83,15,0,-8
15:24:24.446482,-14,-28,-30,-21,-44,-23,-14,-10
15:24:24.453477,6,0,-33,-63,-28,-35,4,8
15:24:24.454477,-19,-20,2,127,18,10,-1,-8
15:24:24.468468,12,13,51,34,116,-1,3,9
15:24:24.476463,8,13,4,33,30,-33,-6,2
15:24:24.491453,-19,-39,-37,18,127,20,-3,-6
15:24:24.498449,10,15,25,-10,-65,-13,5,7
15:24:24.513440,8,23,2,-49,-29,-16,4,3
15:24:24.514439,-7,-8,-16,-22,-73,-49,-5,-1
15:24:24.528429,20,29,70,127,127,57,17,17
15:24:24.536426,0,-9,-27,-73,-128,-10,-3,-6
15:24:24.551416,-8,-8,-9,7,109,-4,-6,-6
15:24:24.558409,-6,-5,-19,72,-28,-13,0,1
15:24:24.573403,-27,-39,-20,12,29,20,-7,-12
15:24:24.574402,13,23,39,127,127,24,4,6
15:24:24.588393,3,-12,-11,-32,-128,-28,1,0
15:24:24.596389,3,7,12,44,45,4,-2,4
15:24:24.611380,6,9,28,112,75,12,6,5
15:24:24.618373,-2,-5,35,114,56,10,2,1
15:24:24.633375,5,2,-3,-18,-13,-3,1,-2
15:24:24.634365,1,-3,0,-5,-1,-3,-1,-1
15:24:24.648354,0,-3,-2,-22,-6,0,-1,3
15:24:24.656352,0,-1,-4,-3,-1,2,-2,-5
15:24:24.678337,-11,-4,0,-3,0,0,1,-2
15:24:24.679335,13,0,-6,-3,-8,-31,-8,-14
15:24:24.693328,-21,-15,-11,-8,-11,5,5,8
15:24:24.694324,-5,3,2,-4,-12,1,5,21
15:24:24.708316,0,0,8,5,8,13,-2,1
15:24:24.716314,-18,-10,-8,-7,-8,-4,17,-11
15:24:24.731305,40,12,13,13,15,-5,-61,18
15:24:24.738300,5,-9,-20,-19,-25,-26,40,-32
15:24:24.761286,-31,3,12,20,20,-20,86,-54
15:24:24.762282,-1,-14,-16,-18,-29,-52,-128,12
15:24:24.768279,-45,-12,-3,-4,-9,-17,-114,98
15:24:24.776277,-12,-26,12,19,19,-41,75,75
15:24:24.791268,-20,4,-4,-9,-23,-6,105,-74
15:24:24.798260,0,5,8,3,10,0,5,10
15:24:24.813252,-4,7,5,5,7,-29,-128,23
15:24:24.814251,19,-9,-5,-3,1,37,127,74
15:24:24.829241,36,-2,-5,-4,7,37,47,38
15:24:24.836240,-13,-3,-5,-9,-15,-25,0,-36
15:24:24.851230,-2,4,0,6,-26,-4,-6,-8
15:24:24.866221,-13,-5,-6,-18,39,11,-15,-7
15:24:24.873215,-1,-1,14,69,-4,3,-3,5
15:24:24.874214,16,9,8,71,-44,5,5,9
15:24:24.888207,52,-40,-15,25,55,21,3,24
15:24:24.896203,-24,-7,-25,-83,-114,-63,-29,-7
15:24:24.911193,4,-13,27,127,83,4,11,1
15:24:24.918189,-49,-40,-44,-55,-128,-4,-1,5
15:24:24.941175,19,22,-15,-50,-126,-56,-21,-15
15:24:24.942177,-44,-9,-38,-48,127,67,17,7
15:24:24.956166,-14,-7,-69,33,94,8,5,5
15:24:24.957162,39,10,32,127,127,11,-27,-36
15:24:24.971156,26,-17,-11,-2,47,8,-17,-11
15:24:24.986147,-68,31,-6,-20,-16,16,-9,-4
15:24:24.994141,-48,-10,2,14,29,-9,-24,-56
15:24:25.001137,-8,5,-2,-30,31,-4,-6,-4
15:24:25.009133,-4,6,5,-128,-97,14,12,-12
15:24:25.016128,-25,-7,-11,70,-87,-9,-5,-12
15:24:25.031116,83,15,5,12,50,47,61,104
15:24:25.039111,27,15,3,-55,-1,25,41,54
15:24:25.054105,-16,-7,-19,0,6,11,-8,5
15:24:25.061099,-15,-1,53,33,23,-1,-2,-10
15:24:25.076091,2,1,28,84,-47,4,2,2
15:24:25.077087,-1,-2,-26,-1,71,10,2,2
15:24:25.091082,0,2,-9,34,109,2,-2,2
15:24:25.099077,3,-5,-15,-82,-128,-14,-1,2
15:24:25.114065,15,3,14,19,-22,11,6,13
15:24:25.121060,5,5,6,-28,-38,9,4,1
15:24:25.136054,56,9,-31,10,21,18,23,48
15:24:25.137054,3,3,6,-23,-22,-30,-7,4
15:24:25.151044,-14,-9,14,127,127,8,-3,-7
15:24:25.159037,-25,1,9,58,104,-5,-8,-20
15:24:25.174030,4,3,-2,3,28,9,4,1
15:24:25.181025,-15,-9,8,-13,-5,7,3,4
15:24:25.204009,-4,-5,-33,-14,-22,4,-2,1
15:24:25.204009,-22,-4,1,-50,-98,-1,-2,-12
15:24:25.211007,-4,1,9,40,26,3,1,0
15:24:25.219000,18,-7,-16,-70,-50,0,3,4
15:24:25.233993,-5,-2,3,72,-28,-9,-4,-4
15:24:25.240989,1,3,-2,-59,19,5,-1,0
15:24:25.255979,1,4,-6,13,-53,-13,-1,-2
15:24:25.256979,2,0,26,83,12,5,2,-1
15:24:25.278965,2,-4,-5,22,-42,-8,-2,1
15:24:25.278965,13,0,-1,14,19,2,-4,-4
15:24:25.293957,9,2,-1,9,-54,9,6,22
15:24:25.300948,2,4,1,-4,0,-4,-1,0
15:24:25.315942,-6,-3,2,10,22,2,0,-5
15:24:25.316939,9,6,0,12,-13,-3,4,7
15:24:25.330932,-14,-11,-10,14,44,-3,-7,-10
15:24:25.338925,-1,1,1,-128,-19,-2,1,-1
15:24:25.353919,-3,0,9,18,22,-8,0,-3
15:24:25.360913,5,0,-5,-13,4,-3,-2,3
15:24:25.375905,28,0,-9,-3,-8,-1,2,6
15:24:25.376905,3,0,0,-6,-4,0,-1,3
15:24:25.390896,-2,1,4,-14,-5,6,4,1
15:24:25.398891,-4,-5,-11,-43,-62,-12,-7,-3
15:24:25.413882,4,1,5,72,10,6,4,12
15:24:25.420877,-3,-1,-1,60,3,-4,-1,-1
15:24:25.435868,3,3,2,-4,-87,-2,3,1
15:24:25.443863,1,-1,-4,-8,1,2,3,1
15:24:25.450855,0,2,3,-6,-25,0,1,0
15:24:25.465849,1,-2,-2,-1,4,4,0,0
15:24:25.473845,-5,1,1,26,-13,-2,0,-2
15:24:25.480840,-3,-2,-4,-1,-73,0,0,-1
15:24:25.495832,-7,-3,-6,-12,18,-6,-3,-7
15:24:25.503826,1,2,1,-5,12,7,4,0
15:24:25.510822,8,0,-3,-128,-23,3,3,5
15:24:25.518817,-5,-4,1,12,9,-1,-3,-7
15:24:25.533807,1,1,0,1,3,0,-1,-3
15:24:25.548798,-2,-4,-2,-3,-2,-3,-2,-3
15:24:25.556792,-3,0,-3,-2,0,2,1,3
15:24:25.570784,-1,-1,2,-22,-7,-4,-1,-2
15:24:25.571781,0,-1,-1,10,-3,-1,-1,1
15:24:25.578778,-1,0,3,2,6,-1,2,6
15:24:25.593767,-3,0,-2,-1,-2,2,-1,-4
15:24:25.601765,3,-2,-4,1,4,4,5,6
15:24:25.616756,2,2,4,2,9,9,4,6
15:24:25.630746,4,2,0,2,12,4,4,1
15:24:25.631750,-2,-4,-2,-1,2,-4,-3,-3
15:24:25.638742,1,1,1,-2,2,-2,-1,-1
15:24:25.653730,-3,-3,-3,-4,-6,-4,-1,-4
15:24:25.668721,2,0,-2,3,-2,-5,2,0
15:24:25.676715,-6,-4,-2,-1,5,-6,-4,-5
15:24:25.683714,3,2,4,3,1,-1,2,0
15:24:25.691707,0,1,2,31,5,-1,1,2
15:24:25.698702,2,0,0,-16,24,3,-1,4
15:24:25.713695,1,1,3,7,7,3,2,-2
15:24:25.721687,-2,-2,-5,-1,-6,-1,0,1
15:24:25.736679,-3,0,-2,1,0,-5,1,-1
15:24:25.743677,-1,-3,1,0,5,1,2,1
15:24:25.750672,1,0,-2,1,0,-1,-2,-2
15:24:25.758668,-5,0,-4,-3,-2,0,-3,-3
15:24:25.788649,0,4,4,5,4,2,2,3
15:24:25.789646,-6,-4,-1,-3,-1,-2,-2,-3
15:24:25.796645,2,-1,-4,0,2,-2,-2,-2
15:24:25.804639,-1,-3,2,-5,-6,-4,-4,-1
15:24:25.810635,-3,-1,-3,-2,-7,1,1,-5
15:24:25.818631,1,0,6,-1,2,0,0,3
15:24:25.833621,-1,-6,-2,-7,-2,0,-4,-8
15:24:25.841616,-3,-2,-1,1,7,11,2,1
15:24:25.856606,-3,-1,1,-2,-4,-2,-5,0
15:24:25.863602,-1,-3,-2,0,-4,-4,2,2
15:24:25.871598,3,2,1,2,1,-7,1,3
15:24:25.886588,1,-2,-2,-1,7,0,0,-1
15:24:25.893584,-7,-8,-4,-7,-1,-1,-4,-6
15:24:25.901583,-2,-1,-2,-1,1,-2,-2,-1
15:24:25.916570,-1,-3,-2,-4,-3,1,-3,-4
15:24:25.923562,-1,-5,0,-1,2,4,-1,2
15:24:25.931558,3,6,5,4,6,2,3,4
15:24:25.938556,-5,-5,-1,-2,-4,-1,-4,2
15:24:25.960543,-1,-1,-2,0,-3,-1,-3,-1
15:24:25.961539,1,-1,1,0,-4,-2,-1,-1
15:24:25.975532,0,0,-2,1,0,-4,-1,0
15:24:25.983526,-2,-2,-4,-1,0,-3,1,-1
15:24:25.990523,-1,-2,-3,0,-2,-1,-2,-5
15:24:25.998516,-4,-1,-5,-6,-5,-5,-1,-5
15:24:26.013507,1,0,1,0,0,1,-1,1
15:24:26.020505,0,-4,-4,0,-3,-3,-1,2
15:24:26.036498,-3,0,2,-4,-1,7,-1,-1
15:24:26.043489,-2,0,-3,2,2,2,0,5
15:24:26.058478,-2,2,1,-2,-1,1,0,-1
15:24:26.058478,0,-1,0,2,-1,-5,2,1
15:24:26.073469,-5,-5,-7,-7,-10,-8,-3,-3
15:24:26.080467,-3,-3,-2,0,-9,1,-1,0
15:24:26.095472,0,-3,-2,-3,0,0,-4,-4
15:24:26.111447,-2,-3,0,0,2,0,1,-1
15:24:26.118441,0,-1,1,2,-2,-2,0,1
15:24:26.119440,-1,-4,-4,-3,1,4,0,0
15:24:26.133432,-2,-3,-3,-4,-2,-3,1,-2
15:24:26.140430,1,-3,0,-3,1,-1,-2,2
15:24:26.156418,-3,0,0,-3,-10,0,0,-3
15:24:26.163413,-5,-4,-4,-5,2,0,-1,-1
15:24:26.178403,0,-3,0,-1,4,0,-1,-5
15:24:26.179403,1,0,2,2,-1,-7,-3,0
15:24:26.208387,-1,0,0,0,-1,-3,-4,-3
15:24:26.209386,-2,-1,-2,-1,-1,-4,0,-1
15:24:26.216382,5,1,2,4,2,-5,0,1
15:24:26.231381,-4,0,-1,-3,-3,-4,-2,2
15:24:26.238368,-4,-1,1,-1,-2,-3,-1,-1
15:24:26.239368,0,2,0,6,4,2,2,2
15:24:26.253359,-4,-3,-5,-4,-4,1,-4,-6
15:24:26.261354,-1,-1,2,5,5,5,2,3
15:24:26.283340,-1,-3,-2,-3,2,1,-2,0
15:24:26.284340,-1,-2,-1,-2,1,-3,2,1
15:24:26.298331,1,-1,0,-1,-5,-1,0,-2
15:24:26.299330,-2,1,1,0,-3,-5,-1,-3
15:24:26.313332,0,0,-2,-1,-3,-3,-3,-3
15:24:26.321320,-3,-1,-1,-1,-4,-1,-2,-2
15:24:26.336315,-6,-1,0,-5,-1,2,-1,-4
15:24:26.343305,-1,0,-2,-4,-7,-2,-2,-5
15:24:26.358294,-2,0,-2,0,3,5,2,2
15:24:26.359294,2,3,1,3,6,1,0,0
15:24:26.375284,0,3,1,1,0,6,5,0
15:24:26.394271,-3,-6,-3,-3,2,1,-1,6
15:24:26.396269,2,1,3,2,4,-4,1,5
15:24:26.404266,-2,-3,-1,-3,-5,1,-1,-1
15:24:26.419256,-1,-1,-2,-2,-3,0,-1,-3
15:24:26.419256,-3,0,4,-2,1,-6,0,0
15:24:26.433247,-3,-5,-4,0,0,-3,0,-3
15:24:26.441242,-2,0,-3,-1,1,-2,0,1
15:24:26.456233,-3,-4,-3,0,-2,1,-1,-5
15:24:26.463228,-6,-3,-3,-5,-7,-2,1,1
15:24:26.478218,-3,-3,0,-2,-1,1,0,2
15:24:26.479219,2,1,3,1,2,1,3,3
15:24:26.493209,0,2,-1,-3,-6,-8,-1,0
15:24:26.501205,-4,-1,1,2,2,-2,-3,0
15:24:26.516195,2,7,3,5,5,4,4,3
15:24:26.523213,-6,-3,-2,1,-3,-1,0,-2
15:24:26.538202,-2,-4,-1,-3,1,2,0,-3
15:24:26.539181,0,-3,-2,-6,-6,-5,-1,0
15:24:26.553174,-6,-4,-3,-4,-8,0,-2,-3
15:24:26.561167,-4,-4,-5,-6,-6,-3,-1,-1
15:24:26.576158,0,1,2,3,4,2,-3,-4
15:24:26.591149,-2,-1,0,0,0,-3,0,2
15:24:26.598143,-1,-2,0,-1,0,-1,-1,-5
15:24:26.599144,0,0,-1,-1,-5,-1,-4,-3
15:24:26.621130,1,1,0,2,11,9,3,3
15:24:26.621130,-4,-3,-1,11,-2,-4,0,-1
15:24:26.636121,-4,-1,-4,3,3,-1,-5,-3
15:24:26.643119,0,-1,-2,1,2,1,-2,2
15:24:26.658142,-1,-4,-1,-3,-6,1,-3,-1
15:24:26.659106,-1,-1,-1,0,-3,-3,0,1
15:24:26.674098,-6,-5,-5,-5,-6,-3,-1,-8
15:24:26.681095,-3,-3,0,-4,-1,-3,-4,2
15:24:26.696086,-4,-2,-2,-3,-4,0,-2,-1
15:24:26.704081,6,2,2,3,1,1,0,3
15:24:26.718071,-1,-1,-2,0,-4,0,-1,-1
15:24:26.719072,0,-2,1,2,6,11,3,1
15:24:26.734061,-3,0,-1,-2,-1,-1,-2,-1
15:24:26.741058,2,-3,1,-3,2,-2,3,3
15:24:26.756047,1,2,4,5,6,9,2,2
15:24:26.764043,0,-4,-2,0,1,-1,1,0
15:24:26.779032,-2,-1,-1,3,0,-1,1,1
15:24:26.779032,-2,-2,-1,-1,0,-1,-1,3
15:24:26.794022,-4,-5,0,-4,-7,3,-1,-2
15:24:26.809016,-4,-1,1,0,2,1,-1,4
15:24:26.816010,0,0,1,2,10,10,4,12
15:24:26.824004,-3,-2,0,0,-2,0,1,-8
15:24:26.838998,-2,-3,-2,1,-3,-1,1,-8
15:24:26.845990,1,-2,-1,2,1,-2,-1,-4
15:24:26.853988,-2,-3,0,-1,0,-5,-5,-6
15:24:26.860984,-1,-2,-3,-2,3,0,-1,0
15:24:26.875974,-4,-2,0,-2,0,-2,-3,-4
15:24:26.883969,2,1,0,3,1,0,2,1
15:24:26.898958,-4,-4,-9,-7,-9,-1,-4,-1
15:24:26.905956,-4,-1,0,1,2,0,-3,0
15:24:26.913951,-1,0,-3,1,3,0,3,2
15:24:26.920944,-2,-1,0,-1,1,0,-4,-2
15:24:26.935936,0,-4,-3,-3,-4,-1,0,-1
15:24:26.943933,0,0,4,4,11,3,0,4
15:24:26.958923,-4,-1,-1,-2,3,-3,-3,-3
15:24:26.965917,-2,-2,-3,-2,-11,-4,1,-6
15:24:26.980909,1,-3,-3,-3,1,2,-1,-4
15:24:26.981909,1,0,0,0,3,-1,4,0
15:24:26.995899,-2,-3,-3,-6,-3,2,-5,-8
15:24:27.003892,-1,-1,-2,-5,-6,-4,-1,-1
15:24:27.018886,0,3,3,1,5,4,3,2
15:24:27.025884,0,-1,4,1,7,3,-1,2
15:24:27.040873,0,-1,1,-2,-3,0,1,1
15:24:27.041872,0,2,-1,2,2,-2,4,-1
15:24:27.063858,1,1,1,1,-8,-3,-2,1
15:24:27.063858,-3,-3,2,3,4,-3,-3,0
15:24:27.078849,0,0,-2,-4,-6,-5,1,-3
15:24:27.085844,2,-3,0,0,-2,-1,-1,0
15:24:27.100835,0,-1,1,-3,-2,-2,-2,1
15:24:27.101835,-1,0,-2,1,-1,1,-2,0
15:24:27.115830,0,0,1,0,-4,-2,1,0
15:24:27.131814,2,3,0,3,-2,-8,-1,2
15:24:27.145807,-1,-2,-3,-3,0,0,-3,-2
15:24:27.146807,1,1,3,2,8,-2,3,1
15:24:27.160799,0,2,3,6,-2,-3,2,1
15:24:27.161798,-4,-1,-3,-5,-4,-6,-4,-3
15:24:27.175789,-3,-2,-4,-2,-3,-5,-5,-2
15:24:27.183784,2,-4,1,-1,1,2,1,-1
15:24:27.198775,-2,1,-1,0,-4,0,-1,-2
15:24:27.205770,-1,1,0,-3,-4,-5,0,-1
15:24:27.220761,-5,-1,0,1,5,-1,1,-1
15:24:27.221760,-7,-3,-3,-6,-8,-4,-1,-3
15:24:27.243747,1,-1,-1,-5,4,-4,1,-3
15:24:27.244745,0,0,2,4,9,1,1,2
15:24:27.258737,3,1,1,0,-6,-7,1,-2
15:24:27.266732,-1,-3,-2,-3,1,-3,0,2
15:24:27.281723,-1,-1,-1,-1,4,1,0,2
15:24:27.281723,-2,-3,-3,-4,-11,-3,2,-1
15:24:27.296714,-3,-4,-2,0,7,3,-1,0
15:24:27.303709,-4,-2,-2,-7,-4,2,-3,0
15:24:27.318700,-1,1,2,2,-1,2,0,-3
15:24:27.326695,1,1,0,2,8,6,2,2
15:24:27.340691,0,1,-6,-7,-7,-6,-7,-4
15:24:27.341683,-1,2,1,2,6,-2,0,-1
15:24:27.356674,1,-2,-4,-4,-7,1,-1,-1
15:24:27.363672,-3,0,-1,-2,1,-2,-3,0
15:24:27.378663,0,2,-1,-5,0,-2,-3,1
15:24:27.386655,-2,-1,1,-1,1,4,1,1
15:24:27.401646,-3,-3,-1,1,0,-2,-1,-4
15:24:27.401646,-1,-4,-1,-1,-12,1,2,-4
15:24:27.416637,-3,-1,2,-1,11,5,-3,3
15:24:27.423635,0,-2,-1,-3,-4,-2,-2,-4
15:24:27.438626,1,0,2,0,-7,-1,-1,1
15:24:27.453616,-3,-2,-2,-2,6,4,0,2
15:24:27.468607,-3,-1,2,-2,-1,0,-2,3
15:24:27.469609,-1,2,3,4,6,-3,-1,5
15:24:27.476602,-4,-4,-1,-7,-1,0,-3,-6
15:24:27.483598,0,-1,0,-1,-6,-5,-3,-3
15:24:27.498588,-4,-4,-3,-1,-7,-2,-4,-3
15:24:27.506586,-5,-3,-3,-2,9,4,1,-4
15:24:27.520575,1,-1,0,-1,-2,0,0,-1
15:24:27.521574,2,6,1,5,9,-1,2,4
15:24:27.536565,-1,0,-1,-5,-4,1,-3,-1
15:24:27.543560,-2,1,-2,1,-3,1,-1,-2
15:24:27.558549,0,-2,2,-4,-10,-2,2,1
15:24:27.566546,-1,0,-3,-4,0,-3,-2,-2
15:24:27.581540,2,2,1,-2,3,3,-1,-2
15:24:27.588532,-5,0,0,1,2,-5,-6,2
15:24:27.596528,-1,-3,-1,-1,-1,-1,2,-3
15:24:27.603523,-5,-3,-1,-4,2,-1,0,-1
15:24:27.618513,-3,-1,1,0,3,-3,-2,0
15:24:27.626510,-1,-1,2,-2,-8,-3,-1,-3
15:24:27.641498,0,0,0,-3,1,4,0,-1
15:24:27.641498,-4,-3,-5,-4,-3,-2,-2,2
15:24:27.656491,3,3,1,0,0,0,2,1
15:24:27.671482,1,3,2,1,2,3,1,-1
15:24:27.678476,-1,0,-2,-3,-12,-2,-1,0
15:24:27.686472,-5,0,-4,-2,-2,-2,-2,-1
15:24:27.701464,-4,-3,-1,-2,1,2,-4,-10
15:24:27.701464,-6,-2,-3,-4,-2,0,-3,-2
15:24:27.716454,0,-1,-4,-5,-6,-1,-2,3
15:24:27.731441,1,3,0,5,2,-2,-1,0
15:24:27.738438,-2,-3,0,0,-4,-2,-3,-1
15:24:27.768422,-2,0,-2,-2,2,-1,-1,0
15:24:27.769420,4,2,3,4,13,5,1,4
15:24:27.770417,-6,2,-1,1,3,-3,1,-4
15:24:27.776417,-3,-1,-1,-1,-2,1,-1,-5
15:24:27.783410,-1,0,-1,-1,0,0,-1,-1
15:24:27.798400,0,-4,-1,0,-5,1,-1,2
15:24:27.806398,2,1,-2,0,2,-1,0,2
15:24:27.821389,-1,-1,2,1,1,-1,-1,2
15:24:27.828388,2,0,0,4,2,-4,1,1
15:24:27.836378,-4,-5,-7,-7,-7,-3,-5,-5
15:24:27.843380,-2,-1,-3,-5,-5,0,1,-1
15:24:27.858365,-1,0,2,-3,-2,0,-3,0
15:24:27.866357,-3,-1,1,0,-5,-11,-1,0
15:24:27.881351,-1,-1,-1,-2,-4,-5,-3,0
15:24:27.896342,-2,-1,-1,1,3,1,-1,-1
15:24:27.903335,-1,1,-4,-3,-4,-3,0,0
15:24:27.904337,-2,1,1,5,3,-5,1,1
15:24:27.918327,0,-3,-1,-4,1,-3,-1,-3
15:24:27.926323,-1,-1,-1,-1,-3,-2,0,-5
15:24:27.941314,-2,0,-4,0,6,1,-1,2
15:24:27.948310,1,0,0,0,-5,4,0,3
15:24:27.963301,0,1,-1,-3,-3,0,0,-2
15:24:27.978289,-3,1,0,-1,7,7,1,1
15:24:27.979288,-4,-3,-2,-3,-1,-4,-4,-5
15:24:27.986285,-1,2,1,-3,2,3,3,1
15:24:28.001276,0,-1,0,0,-2,-1,0,-2
15:24:28.008272,-3,-3,0,-2,1,0,3,0
15:24:28.024261,3,5,8,8,9,9,4,6
15:24:28.024261,-3,-2,-2,-6,-3,-3,3,0
15:24:28.038253,-3,1,2,-1,0,-2,-3,4
15:24:28.046249,-3,-3,0,0,8,2,2,0
15:24:28.061239,0,-2,-4,0,-3,0,-2,-2
15:24:28.068234,2,-1,-1,0,-2,0,-1,-2
15:24:28.083226,-3,-1,-3,-3,-4,-1,-5,-2
15:24:28.084225,-1,1,-2,-1,-5,-2,-2,3
15:24:28.098216,-5,-3,0,-2,-7,-4,-1,-2
15:24:28.106212,-1,0,0,0,-4,-3,-2,-2
15:24:28.121199,-2,0,0,0,-1,-3,4,1
15:24:28.129194,-2,-1,-1,-2,-1,-2,-2,0
15:24:28.151183,1,-2,-2,-4,-4,-3,-3,-5
15:24:28.152183,0,1,-1,-2,1,-1,-3,1
15:24:28.159179,-3,0,-3,-5,-5,-3,-4,-4
15:24:28.166175,-3,-4,-3,-10,-7,-2,-1,-6
15:24:28.181165,2,-1,-1,-1,-4,2,3,-1
15:24:28.189160,-5,-3,-2,0,1,0,-4,-6
15:24:28.203152,0,0,1,0,7,-1,0,2
15:24:28.204149,0,-1,-1,-1,-4,-1,1,1
15:24:28.219141,1,-1,0,0,-4,1,2,-3
15:24:28.226137,0,0,2,4,1,5,2,2
15:24:28.241128,2,3,2,1,1,-1,0,3
15:24:28.249127,1,0,-2,-1,1,0,0,-2
15:24:28.264111,7,5,1,3,7,1,4,6
15:24:28.264111,-5,-2,-1,0,-3,2,-1,-3
15:24:28.279103,-1,-2,0,-4,-5,-3,-2,3
15:24:28.286100,-2,-4,-3,-1,-4,-4,-3,-4
15:24:28.301090,1,-2,-2,-1,-4,-2,1,2
15:24:28.309084,1,-2,0,-1,1,-2,-1,-3
15:24:28.324076,4,3,4,2,5,1,3,2
15:24:28.331072,-1,-1,-1,1,-5,-6,-5,0
15:24:28.339065,-2,-2,-1,-3,5,3,-1,-1
15:24:28.346063,0,0,-1,-1,-5,0,-1,-2
15:24:28.369046,0,-1,0,-1,5,0,-1,-1
15:24:28.369046,-1,-3,3,0,-4,-1,3,1
15:24:28.383059,0,0,0,-2,0,-5,0,1
15:24:28.384037,0,2,0,0,-1,-3,0,1
15:24:28.399030,-5,-1,0,-2,-1,-1,-1,-1
15:24:28.406026,2,0,5,2,-2,-4,-5,-1
15:24:28.421017,0,-1,3,-2,-4,-5,-1,0
15:24:28.429012,-3,-1,-2,0,-2,3,0,-1
15:24:28.444000,-2,2,-1,-2,1,-1,2,-1
15:24:28.444000,-3,-5,-5,-7,-4,1,-1,-3
15:24:28.458993,-2,0,0,-1,1,0,-1,-2
15:24:28.465986,2,2,-1,4,6,1,-1,-2
15:24:28.488972,-1,1,1,-2,-3,-4,-1,1
15:24:28.488972,-2,-1,-2,-1,-1,-3,2,-1
15:24:28.503963,1,0,-1,-3,-3,-1,-1,0
15:24:28.503963,2,-3,-2,-3,-3,0,-3,-2
15:24:28.518956,-3,-1,-3,-4,1,-2,-1,-3
15:24:28.525949,-1,-2,1,-2,-1,0,-2,-3
15:24:28.540941,-3,1,0,1,-4,-6,-2,-3
15:24:28.548938,-2,-2,-3,-1,-3,1,0,1
15:24:28.563928,0,3,1,0,0,1,1,-3
15:24:28.563928,-4,-3,-2,0,-3,-2,1,-2
15:24:28.578919,-1,0,-4,-2,-3,-1,-1,-2
15:24:28.585912,-4,-4,-5,-3,-5,0,-1,-2
15:24:28.600911,-3,-3,-1,-5,-2,-4,-2,-3
15:24:28.608900,-5,0,-3,0,6,4,0,-1
15:24:28.623891,0,0,-1,-1,0,-3,0,-1
15:24:28.623891,-3,-6,-1,-2,-1,-1,-1,3
15:24:28.638881,-2,1,-3,1,3,1,-2,-1
15:24:28.645877,-3,-3,-3,-4,-4,2,-1,-2
15:24:28.660868,0,0,-2,0,0,4,1,1
15:24:28.668863,-1,2,0,-3,-3,1,0,1
15:24:28.683853,0,-3,-3,1,0,0,1,-1
15:24:28.684853,1,-1,-4,0,4,4,2,1
15:24:28.698844,0,1,-4,-1,-1,1,0,1
15:24:28.705839,-1,0,0,4,3,-2,-2,2
15:24:28.728823,-3,-3,0,-3,-4,-2,0,-1
15:24:28.728823,-4,-3,-4,-3,-1,-4,0,1
15:24:28.750810,-3,-2,-5,-4,-3,-4,-1,-2
15:24:28.751811,-3,-2,2,-3,-3,1,1,5
15:24:28.758807,-1,-2,0,-1,-2,-1,-4,-1
15:24:28.765803,0,-3,-3,-3,-3,2,-5,-1
15:24:28.780793,1,2,0,1,2,0,0,-1
15:24:28.788788,-2,0,-1,-4,0,0,1,0
15:24:28.803779,-1,-4,-2,0,1,-2,0,-3
15:24:28.810775,1,1,-1,4,5,4,4,3
15:24:28.818770,2,1,2,-2,9,11,3,1
15:24:28.825766,0,-1,-1,-1,-1,-3,3,0
15:24:28.840757,0,-4,1,1,-2,-4,0,1
15:24:28.848751,0,0,0,-1,0,-1,-1,-2
15:24:28.863742,-2,1,-2,-1,-2,-1,-3,-3
15:24:28.870738,-3,0,-2,0,4,3,0,0
15:24:28.885732,-1,-3,-3,-1,-6,-2,0,1
15:24:28.886728,-4,-5,-4,-5,0,-1,-1,1
15:24:28.901717,-1,-1,-2,-3,-2,-2,1,1
15:24:28.908714,-3,-1,0,-1,5,2,2,0
15:24:28.923705,-2,0,0,-2,2,-3,0,-3
15:24:28.930700,-3,-4,-4,-3,-1,0,0,2
15:24:28.945692,-1,-1,-4,0,0,-2,-1,1
15:24:28.946688,-2,-4,1,-1,-2,-2,-2,-3
15:24:28.960687,2,1,3,4,2,-1,0,3
15:24:28.968677,-2,-2,-2,-5,-5,-3,-2,2
15:24:28.983667,-2,2,0,-1,-3,-2,-1,-2
15:24:28.991662,-5,-3,-1,-3,-3,-3,-2,-3
15:24:29.006651,-3,0,-1,-1,0,-3,-2,-3
15:24:29.006651,-4,-1,-2,-3,-2,-1,0,0
15:24:29.028640,-1,-3,-4,-5,-2,1,-2,-1
15:24:29.029636,-4,-2,-1,1,-3,-2,2,1
15:24:29.043630,-1,-2,-2,-5,-2,0,-3,-3
15:24:29.051625,-6,-1,-2,-2,-4,1,2,-4
15:24:29.073612,5,-1,2,3,5,2,3,4
15:24:29.074610,-7,-2,-4,-5,-4,-6,-2,-5
15:24:29.088602,-3,-2,0,1,0,-1,-1,-1
15:24:29.089602,0,-3,-1,-1,0,2,-4,2
15:24:29.103593,0,-2,-1,0,0,-2,-1,-4
15:24:29.111588,0,-1,2,1,-2,1,1,0
15:24:29.126576,-3,0,-4,-3,-6,1,-2,0
15:24:29.126576,-1,-2,0,0,2,-3,-2,1
15:24:29.141570,-1,-5,-1,-3,2,-1,-2,-1
15:24:29.148565,1,-2,1,1,-3,-1,1,5
