timestamp,emg1,emg2,emg3,emg4,emg5,emg6,emg7,emg8
18:50:13.333245,-1,0,-1,-3,0,0,0,-4
18:50:13.347235,0,-3,-2,0,-2,-1,0,1
18:50:13.348235,-4,0,2,-2,-5,1,1,1
18:50:13.370222,-1,0,0,2,-2,-2,1,0
18:50:13.370222,-1,-2,-1,-3,1,-3,-2,-2
18:50:13.384214,-3,1,0,-3,0,-4,-2,-2
18:50:13.384214,-2,2,-1,-3,-5,-4,-1,-2
18:50:13.406200,-3,-2,-2,8,6,-1,-2,-2
18:50:13.407198,-1,0,-3,-3,-1,1,-3,-5
18:50:13.429185,2,0,-1,-2,-1,-2,-1,1
18:50:13.429185,-3,1,0,-2,-1,-4,-1,-2
18:50:13.444176,1,-1,-3,-3,2,0,-2,-1
18:50:13.444176,-3,0,1,-1,-5,-1,-3,0
18:50:13.466164,-1,1,-2,-3,-3,-5,0,0
18:50:13.467161,-1,-4,-2,-3,-4,-5,1,-2
18:50:13.489148,-2,1,0,1,1,-1,0,-2
18:50:13.489148,0,1,0,-3,0,2,-3,-3
18:50:13.504139,-2,-1,1,1,5,4,1,0
18:50:13.504139,-1,-2,-2,-1,-3,-1,1,0
18:50:13.526127,-1,-3,0,-3,-1,-1,1,-1
18:50:13.527123,2,-2,1,0,-3,-3,1,0
18:50:13.549111,-3,0,0,-1,0,0,-1,-1
18:50:13.549111,-2,-1,-1,-1,-2,-2,1,-1
18:50:13.564101,0,-1,-2,0,-5,-2,1,1
18:50:13.564101,-5,-2,-3,13,2,-2,0,-1
18:50:13.587086,2,1,-1,-4,-4,-2,0,-1
18:50:13.587086,-3,2,1,-2,-6,1,-1,0
18:50:13.609073,-4,-3,0,-2,0,-1,-2,-1
18:50:13.609073,5,6,1,-1,3,5,1,-1
18:50:13.624063,-1,-1,0,1,-1,0,1,-1
18:50:13.632058,0,-2,-3,-6,-4,0,2,-3
18:50:13.646053,-2,-3,-1,-3,2,3,0,0
18:50:13.647053,0,-4,0,-1,0,-2,0,0
18:50:13.669036,1,1,-3,0,0,2,-1,-1
18:50:13.670035,3,1,0,1,0,-2,1,3
18:50:13.684026,1,-2,0,-6,-6,-3,1,-1
18:50:13.692022,0,0,0,0,3,-1,-3,3
18:50:13.706015,-1,0,-3,-2,-2,1,0,0
18:50:13.707012,2,1,1,-3,-2,0,-1,0
18:50:13.728997,-1,-1,0,-2,-2,-1,-1,-3
18:50:13.729998,5,2,1,1,1,4,-1,-1
18:50:13.743990,0,-3,-2,0,-1,-2,0,-1
18:50:13.751985,1,0,1,0,0,1,-2,0
18:50:13.766975,2,-1,-4,-3,0,0,-1,1
18:50:13.766975,-1,3,0,-2,-3,0,-4,-2
18:50:13.788961,1,-4,0,-1,2,-1,-2,1
18:50:13.789962,-3,-3,-4,-1,-1,1,-3,2
18:50:13.803964,-2,-2,-2,0,1,-4,0,-2
18:50:13.811948,-2,-3,0,-3,-3,-2,-3,-5
18:50:13.826939,0,-3,-1,-2,-7,-1,-1,-1
18:50:13.826939,-2,0,-2,-2,0,1,3,-3
18:50:13.848924,-4,0,0,-4,-1,-1,-1,0
18:50:13.849924,-3,-1,0,-3,-3,0,-2,1
18:50:13.863918,0,-1,-1,4,1,-3,-1,0
18:50:13.871911,8,1,-2,-3,-3,-5,-2,2
18:50:13.893895,3,2,-5,-1,-2,-3,-2,1
18:50:13.894897,-1,1,0,-1,-1,1,-3,0
18:50:13.908890,0,0,-1,-13,-9,-3,1,-4
18:50:13.916882,2,-2,0,3,7,1,-1,-1
18:50:13.923884,-1,2,0,-3,-5,0,-1,-3
18:50:13.931872,-1,-1,0,-1,2,1,-3,0
18:50:13.946864,-1,-3,-6,0,-5,-2,-1,-3
18:50:13.946864,0,0,-4,-2,2,0,-1,-1
18:50:13.968851,-5,1,-1,-2,-5,1,-1,-6
18:50:13.969849,1,2,1,-1,1,0,-2,-2
18:50:13.983843,-2,-3,1,-1,1,-1,-4,1
18:50:13.991836,-1,-1,0,-2,0,4,-1,-1
18:50:14.006827,-6,-5,-3,-5,-3,0,-1,0
18:50:14.006827,-2,0,-3,0,-4,-1,0,-2
18:50:14.028835,2,-2,2,2,2,0,-1,0
18:50:14.029813,-5,-2,-1,-10,-5,0,0,-3
18:50:14.043826,0,2,1,1,3,-2,0,2
18:50:14.051798,2,-2,-2,-5,-5,0,-2,2
18:50:14.066790,-1,-1,-3,-1,1,2,1,0
18:50:14.066790,0,1,-1,-1,1,-2,0,0
18:50:14.088780,0,0,-1,3,-1,-2,-1,1
18:50:14.089774,-2,0,-1,-2,-2,0,0,-3
18:50:14.103768,1,-1,1,3,2,0,2,4
18:50:14.111767,-2,-1,-1,-1,0,-1,0,-5
18:50:14.126753,-6,-3,-2,-2,1,4,-1,-1
18:50:14.126753,-3,0,-3,0,0,-3,-1,2
18:50:14.148739,-3,-1,3,-2,2,1,0,-1
18:50:14.149737,-1,-1,-1,-3,1,-3,-3,-2
18:50:14.163732,-3,-3,-1,0,0,-1,1,-3
18:50:14.171723,0,1,-1,-2,-1,-2,3,0
18:50:14.186715,-1,1,-1,-1,-2,-1,-4,-2
18:50:14.186715,-5,-4,-4,-3,2,0,-3,-4
18:50:14.208706,1,0,0,-3,-4,-2,-1,-1
18:50:14.209700,-1,-1,0,10,2,-1,0,0
18:50:14.224691,1,-2,-1,-4,0,-1,-2,0
18:50:14.231686,-6,-2,-3,0,-2,-2,0,2
18:50:14.246678,5,3,0,0,-1,-3,-2,0
18:50:14.246678,0,0,0,1,-1,2,0,-2
18:50:14.269663,-1,-2,-2,-2,-1,-2,-1,-2
18:50:14.269663,-4,-5,-1,0,-1,0,-1,-3
18:50:14.291650,3,-1,-2,1,7,0,2,5
18:50:14.291650,0,1,-3,1,1,1,-2,0
18:50:14.306640,1,0,-1,0,0,-1,-1,0
18:50:14.313638,0,1,2,2,-3,1,1,0
18:50:14.328629,-4,-2,0,1,0,0,1,0
18:50:14.329626,3,2,0,0,0,1,-3,1
18:50:14.351614,5,3,-2,7,-4,-2,1,0
18:50:14.352612,2,2,2,-2,6,-1,-1,0
18:50:14.366604,1,-1,0,-4,-3,-1,-1,1
18:50:14.367602,-4,0,2,0,-1,-3,-2,1
18:50:14.388591,3,1,0,-2,2,1,1,0
18:50:14.389588,0,-2,0,-2,2,-3,0,-1
18:50:14.411576,0,-3,-3,1,-4,0,-2,1
18:50:14.411576,-1,1,0,1,-3,-3,-3,-2
18:50:14.426567,-1,-2,0,0,-5,-1,0,-3
18:50:14.426567,-3,-1,0,-2,2,0,3,-1
18:50:14.449554,-1,1,-3,-1,-1,-1,-2,-1
18:50:14.449554,1,-1,-1,-3,4,0,0,-1
18:50:14.471539,0,0,1,-6,-1,0,-3,0
18:50:14.472536,0,0,-1,4,0,-1,1,2
18:50:14.486529,-2,-1,-5,0,-3,-3,0,1
18:50:14.487528,0,-1,-2,-3,-4,-4,0,1
18:50:14.508517,-1,-1,-2,-4,-1,-2,-3,2
18:50:14.509516,0,1,-3,-3,-6,-1,0,-1
18:50:14.531501,13,5,1,3,4,1,0,5
18:50:14.532501,0,-3,1,-1,-2,-1,-3,-4
18:50:14.546491,-2,-2,-3,-1,-1,0,-3,-3
18:50:14.547509,0,-1,-1,-2,0,0,-1,-1
18:50:14.569478,-2,-1,0,-1,5,1,0,-1
18:50:14.569478,-1,-3,-3,-1,1,0,0,-2
18:50:14.591466,-4,-1,2,-2,1,-2,-2,-1
18:50:14.592462,1,1,3,-12,2,2,1,1
18:50:14.606454,1,-3,-1,1,-1,-3,-5,-5
18:50:14.607455,2,0,-3,-1,2,-1,-1,1
18:50:14.629443,-2,0,0,-1,-3,2,-1,-1
18:50:14.629443,-3,1,-4,-3,-3,-1,-1,1
18:50:14.652426,-1,-2,-4,0,2,0,-2,2
18:50:14.652426,0,-3,-2,0,-1,-2,-1,-2
18:50:14.667419,-5,-4,1,0,-4,0,-1,-3
18:50:14.667419,-1,-1,-3,1,-1,0,0,2
18:50:14.689406,-3,-5,-1,0,-4,-4,-2,2
18:50:14.690405,-1,-2,0,1,2,3,-3,-1
18:50:14.712392,2,-1,0,2,9,3,2,3
18:50:14.712392,-4,1,-3,0,-2,0,0,0
18:50:14.727381,-2,-2,-4,0,-1,1,-1,-2
18:50:14.727381,-1,2,-3,0,-4,-4,0,-2
18:50:14.749369,-1,-1,-2,-1,3,-3,1,0
18:50:14.750365,-3,1,1,-15,-6,0,-2,-1
18:50:14.772351,-1,1,1,2,-5,2,-2,-2
18:50:14.772351,0,-1,1,-4,-1,-2,-3,0
18:50:14.787345,0,-2,-1,1,1,-2,-2,-2
18:50:14.787345,0,-3,1,-5,-2,2,-1,0
18:50:14.809328,-2,0,-1,1,1,-1,1,2
18:50:14.810328,-1,-1,0,0,2,0,-1,-1
18:50:14.832314,-3,-1,-1,1,-4,0,-2,-2
18:50:14.832314,3,-3,1,3,1,1,0,0
18:50:14.847305,-5,-3,-2,-2,-2,-2,-1,-3
18:50:14.847305,3,0,-1,-4,-3,-4,1,-1
18:50:14.869295,-2,2,1,0,5,1,-2,2
18:50:14.870291,0,-1,-3,2,1,-1,-3,-1
18:50:14.892277,-1,-4,0,2,-4,2,-3,-1
18:50:14.892277,-4,-3,-4,0,-5,1,-1,-1
18:50:14.907268,-2,-3,-1,-7,-4,-2,-2,-3
18:50:14.907268,-4,-2,0,0,1,4,0,2
18:50:14.929257,3,1,2,-1,-4,0,-2,4
18:50:14.930253,-2,-2,0,0,2,1,0,-1
18:50:14.952240,0,-2,-2,0,-3,1,-2,-3
18:50:14.952240,0,-1,1,-2,-6,-3,0,2
18:50:14.967234,0,0,0,-3,2,-1,-3,-1
18:50:14.974229,-4,-1,-1,0,-3,-1,-2,-2
18:50:14.997211,-6,1,-3,-2,0,-3,-2,0
18:50:14.997211,1,0,1,1,0,1,0,2
18:50:15.012202,-2,-4,-1,3,2,-2,-2,0
18:50:15.012202,-2,-3,-1,-4,-4,0,-2,-1
18:50:15.035190,-1,1,-3,-12,-1,1,0,-1
18:50:15.035190,-2,-1,2,8,1,0,0,-1
18:50:15.049183,-4,-2,-1,-4,-5,-6,-3,-1
18:50:15.050179,1,1,0,1,2,1,-2,1
18:50:15.079164,-2,-1,0,-2,-4,-1,-3,-2
18:50:15.080162,1,1,-2,-2,1,1,2,-1
18:50:15.094155,0,-1,-1,-1,-1,-3,-2,-2
18:50:15.095152,1,0,0,2,2,0,-1,-5
18:50:15.109145,0,0,1,3,5,3,1,4
18:50:15.110145,-2,2,0,-2,-3,-3,-2,-1
18:50:15.132129,3,2,0,-1,0,-1,-2,0
18:50:15.132129,-1,-2,-2,8,1,-3,-2,-4
18:50:15.155114,-5,0,-1,-3,-2,-3,1,-1
18:50:15.155114,0,0,1,-1,0,1,-3,2
18:50:15.169108,0,-1,-2,-2,0,-3,-3,-1
18:50:15.170106,2,-3,-2,-3,-2,2,1,0
18:50:15.192094,1,2,2,1,1,0,-1,-1
18:50:15.192094,0,-1,2,-3,-1,-1,-2,-2
18:50:15.214079,-3,0,-2,0,2,-2,-2,-1
18:50:15.215079,0,3,1,2,-2,-2,-1,0
18:50:15.229070,0,-1,0,1,2,0,0,1
18:50:15.230070,1,-1,-1,-4,-3,-3,0,0
18:50:15.252057,-3,-2,1,-2,1,2,-3,-1
18:50:15.253053,-5,-3,1,0,2,0,0,1
18:50:15.274043,-4,0,-3,12,6,-5,-1,-3
18:50:15.275040,-3,1,0,-3,-5,-5,0,-1
18:50:15.289033,-2,-3,-3,-4,-5,0,-4,-1
18:50:15.290031,6,3,0,-1,-5,-1,-2,0
18:50:15.312020,0,-4,1,1,1,0,-2,-2
18:50:15.312020,-1,3,0,0,-6,-1,-1,3
18:50:15.334003,0,0,2,1,-1,-3,0,-1
18:50:15.335003,0,1,-1,-3,-3,-1,0,-3
18:50:15.349994,-2,-3,0,0,-4,-2,-2,0
18:50:15.349994,0,1,1,2,2,-3,-4,-2
18:50:15.371983,-1,-2,-1,-5,-4,0,-2,0
18:50:15.371983,1,1,0,9,4,-3,0,2
18:50:15.393968,-1,-2,-1,-3,-3,-4,-1,-2
18:50:15.394966,-4,0,1,-2,-1,1,-2,-1
18:50:15.408957,-2,-2,-4,-2,-3,1,-2,-2
18:50:15.409959,1,-1,0,1,1,1,-3,2
18:50:15.431944,9,3,-1,-1,-1,-1,-1,1
18:50:15.432944,-3,2,0,-1,-5,-1,0,-1
18:50:15.454928,-2,0,-1,1,0,-1,-2,0
18:50:15.454928,-3,-3,0,-2,0,-3,-3,0
18:50:15.469919,-1,-2,-2,2,3,0,2,-1
18:50:15.469919,-3,1,2,2,3,1,-3,0
18:50:15.491908,0,-1,0,8,1,-5,-2,1
18:50:15.492907,-2,-4,-1,-4,-1,-1,-2,-1
18:50:15.514892,-1,-2,-1,-1,-1,-4,0,0
18:50:15.514892,2,-2,-2,-2,2,2,1,2
18:50:15.529883,-2,0,-4,0,0,-1,-2,-2
18:50:15.529883,-1,0,-2,-2,0,-1,-1,-1
18:50:15.551871,-2,0,0,-2,-3,0,-1,0
18:50:15.552868,-2,1,-1,1,0,-3,1,0
18:50:15.574856,0,-1,-3,1,4,-1,-1,-4
18:50:15.574856,9,4,-3,-11,-6,-2,-1,2
18:50:15.589844,-4,-1,2,5,-3,-1,-4,2
18:50:15.589844,-3,0,0,-3,-2,-2,0,-1
18:50:15.611834,-2,-1,-1,-3,-5,-1,-2,-1
18:50:15.612830,1,-1,-3,-3,1,1,-3,0
18:50:15.634817,-4,-4,-1,2,2,1,-1,-3
18:50:15.634817,-1,-1,1,-4,-2,-1,-1,-2
18:50:15.649808,0,-2,0,-2,1,-2,0,0
18:50:15.649808,0,-3,-3,-3,-1,-2,0,-2
18:50:15.672793,2,1,1,-1,3,-2,0,-3
18:50:15.672793,-2,-1,-2,-2,-4,-3,0,2
18:50:15.701778,0,1,2,-2,2,0,4,1
18:50:15.702774,-2,0,-2,6,-4,0,-2,-1
18:50:15.709770,-3,-1,0,0,0,0,0,3
18:50:15.709770,-2,0,-2,-1,1,0,-2,-2
18:50:15.732757,0,-1,-3,-2,-2,-2,-3,-3
18:50:15.732757,0,-4,0,0,-1,-1,-2,-2
18:50:15.754744,-1,-3,0,-1,-3,-4,-2,-7
18:50:15.754744,-2,-2,-4,-2,2,2,-2,-1
18:50:15.769733,-3,-1,-2,-2,-1,0,1,0
18:50:15.769733,0,-4,-1,-1,-2,2,0,3
18:50:15.791720,-1,-2,-1,1,2,-1,0,1
18:50:15.792719,1,2,-4,-4,-1,0,-1,0
18:50:15.814705,-2,0,0,-13,-6,2,-1,0
18:50:15.814705,-2,-2,-1,2,0,-2,-1,-2
18:50:15.829696,1,0,1,1,-1,1,-2,-1
18:50:15.829696,-3,-1,0,-3,-4,2,2,-1
18:50:15.852685,-3,-2,0,1,0,-2,-4,0
18:50:15.852685,-1,-1,-1,-1,-2,0,1,1
18:50:15.874668,-3,-2,-2,-3,1,-2,-2,-3
18:50:15.875671,-1,-1,0,0,1,2,-4,-3
18:50:15.889661,-2,-1,2,-1,-1,0,-2,-2
18:50:15.896657,-3,-1,0,1,2,-1,0,0
18:50:15.911645,1,0,-1,0,-3,-3,-2,1
18:50:15.912644,-2,-1,1,-10,-6,-3,0,0
18:50:15.934633,-1,-1,-2,6,-1,-1,-6,3
18:50:15.935632,-2,-3,-3,0,1,0,-1,0
18:50:15.956617,1,1,-1,-1,-5,-6,0,0
18:50:15.957616,-4,-1,0,-1,-4,0,-3,-2
18:50:15.971607,-3,-2,-1,-1,1,-2,0,0
18:50:15.972607,0,1,-4,-1,-2,-1,-1,-1
18:50:15.994594,0,0,-1,-3,-5,1,-2,0
18:50:15.995596,-1,-3,-1,-3,0,-3,0,-1
18:50:16.016582,1,0,1,0,2,4,1,1
18:50:16.017582,-3,-4,-3,-1,-2,-2,1,0
18:50:16.031571,-3,1,-2,0,2,1,-2,-1
18:50:16.032570,-4,1,-4,-2,-3,-1,0,-1
18:50:16.054560,-2,-3,-2,-1,-3,-2,-3,-1
18:50:16.054560,0,-3,-2,-1,0,-3,-2,0
18:50:16.076542,-3,-1,-3,0,2,-3,1,-4
18:50:16.077545,1,-1,0,-1,-1,-5,-2,-4
18:50:16.099530,-2,-1,-2,-1,0,2,0,1
18:50:16.099530,1,-4,-2,-1,-5,0,-1,-2
18:50:16.114519,-1,-5,-1,-2,-1,-2,0,-1
18:50:16.115519,0,-2,-1,-2,-2,-2,-1,-2
18:50:16.137504,0,0,-3,2,-2,-2,-3,0
18:50:16.137504,1,1,0,2,-3,-2,-1,-1
18:50:16.152499,-1,-2,1,-2,-3,-2,-2,0
18:50:16.152499,-1,0,-1,2,4,0,0,-1
18:50:16.174485,0,2,-4,1,-2,-1,-3,-3
18:50:16.175484,-1,-2,-3,0,-1,1,-2,0
18:50:16.197469,0,0,1,-2,-7,-4,0,1
18:50:16.197469,0,-2,-1,1,4,-3,1,-2
18:50:16.212458,-1,2,1,-1,-6,-1,-1,0
18:50:16.212458,-1,-1,-3,0,-3,-2,0,-1
18:50:16.234444,1,0,-3,1,-1,-4,1,3
18:50:16.235447,2,0,2,0,1,-3,2,-1
18:50:16.256432,-1,-1,-3,-2,-4,-1,-2,1
18:50:16.257431,-1,-2,1,-3,-1,-1,-5,-2
18:50:16.272421,-3,1,1,-1,3,-5,-1,1
18:50:16.272421,-1,-4,-2,-4,-9,-4,-2,-2
18:50:16.294411,-1,-2,4,13,8,3,1,-1
18:50:16.295410,-1,-1,1,-5,-2,-3,-3,-2
18:50:16.317393,1,-1,1,-3,-2,-1,-2,-1
18:50:16.317393,-3,0,1,-3,-1,2,1,-2
18:50:16.332384,-1,-3,-1,-1,0,-1,1,-1
18:50:16.339383,-2,-1,-1,0,2,2,-1,1
18:50:16.354373,-2,-7,-4,-4,-4,2,-1,-4
18:50:16.354373,1,-1,0,0,-1,-1,1,-3
18:50:16.377357,-1,-1,-1,2,0,2,-1,-1
18:50:16.377357,-2,1,-1,-3,-1,1,0,-5
18:50:16.392347,-3,0,-3,-1,0,-3,0,-3
18:50:16.393348,-2,-1,0,1,2,-1,-1,0
18:50:16.414333,0,-1,-2,0,-2,-1,-3,-3
18:50:16.415333,2,-1,0,-2,-1,0,-2,0
18:50:16.437322,0,-1,-4,1,1,1,4,0
18:50:16.437322,-3,-3,-1,-1,-2,-2,0,-1
18:50:16.452311,-1,0,0,1,0,1,-1,-1
18:50:16.453310,-3,-1,-1,-3,4,-1,-1,2
18:50:16.474299,0,-1,0,-4,-4,-2,-2,-1
18:50:16.475295,0,-4,-1,-3,3,3,0,-3
18:50:16.497283,-1,0,0,0,0,-2,-1,0
18:50:16.497283,-2,1,1,2,-2,2,0,0
18:50:16.512275,-2,0,-1,-2,-5,-1,0,-1
18:50:16.519271,2,-1,-1,0,-1,1,0,1
18:50:16.534262,0,-1,0,-1,1,-1,-1,-1
18:50:16.535261,3,0,1,1,-1,-2,0,-2
18:50:16.557247,1,2,-2,0,1,-2,0,1
18:50:16.557247,-2,-2,1,0,1,-1,0,-1
18:50:16.572235,-3,-4,-1,-3,-3,0,-4,-3
18:50:16.579234,1,-2,-2,-1,-9,-1,0,0
18:50:16.594225,1,0,1,0,6,-2,0,2
18:50:16.595224,-3,-3,-3,-1,1,-1,1,-1
18:50:16.617208,1,-1,0,-4,-3,-2,-2,3
18:50:16.617208,-1,-1,-2,-2,-1,-1,0,-1
18:50:16.632201,1,-1,-3,-1,-2,0,-2,0
18:50:16.639196,-1,-1,-5,-3,-2,0,-5,-2
18:50:16.654187,-2,0,-1,2,0,0,1,-3
18:50:16.655184,-1,0,-1,-4,-2,-2,-1,-2
18:50:16.677170,-2,-3,-2,-2,-1,-4,1,1
18:50:16.677170,1,1,0,0,0,-1,-1,0
18:50:16.692164,4,5,0,1,3,2,3,2
18:50:16.699158,-2,-2,0,-4,-3,-1,-5,-2
18:50:16.714150,-2,-1,1,-1,-5,-2,-1,-3
18:50:16.715147,-3,-2,-1,-2,-1,0,-3,-1
18:50:16.737133,0,-2,-1,-3,-3,0,-2,-1
18:50:16.737133,1,0,-1,5,3,-2,3,3
18:50:16.752124,2,-1,1,1,-3,2,-2,-1
18:50:16.759119,0,-2,1,0,-4,1,-2,-4
18:50:16.774113,0,0,-1,1,-2,-5,-4,-4
18:50:16.775110,-4,-4,-5,-1,0,1,1,-2
18:50:16.797096,-2,-4,-2,-1,0,0,-1,-2
18:50:16.797096,-3,-1,-2,-2,-5,3,-2,-1
18:50:16.812089,1,-1,-1,-1,-2,1,-3,-1
18:50:16.819082,-4,-2,-3,0,-3,-1,0,-1
18:50:16.834076,0,-1,-1,1,-3,-4,0,-3
18:50:16.835072,-1,0,0,0,2,-3,1,1
18:50:16.857059,-4,0,-1,1,-5,-3,-3,-2
18:50:16.857059,-3,-4,-3,-1,-4,-3,-1,-4
18:50:16.872049,-3,-1,-1,-3,-2,-4,-4,-1
18:50:16.879045,-7,-4,-2,-6,0,-1,1,-2
18:50:16.894037,3,-2,1,0,-4,-1,-1,1
18:50:16.895036,-5,-3,-2,-1,-2,-5,-3,-3
18:50:16.917024,0,1,-1,2,4,-5,-1,0
18:50:16.917024,0,1,0,-1,-2,1,-1,-1
18:50:16.932014,-3,-1,1,1,-3,-3,-3,-1
18:50:16.939008,1,-4,-1,-1,-1,0,-1,-3
18:50:16.953998,-4,-1,-1,-1,-1,-2,-4,-4
18:50:16.954998,-2,-3,-2,-1,-1,-1,-1,-3
18:50:16.976987,-1,-3,-1,1,-1,2,-1,-3
18:50:16.976987,1,2,2,0,-1,-4,-2,-2
18:50:16.991978,-3,-1,0,0,-3,-1,1,-1
18:50:16.998970,-2,-5,-2,-3,-1,-1,-2,-4
18:50:17.013962,0,-2,2,-4,1,0,-1,-1
18:50:17.014961,0,0,-2,-3,-6,-8,1,-2
18:50:17.036949,0,-3,1,1,2,2,-1,-1
18:50:17.037949,-2,-3,-1,-3,-5,-1,0,-1
18:50:17.051941,-3,0,-2,1,3,-3,-3,0
18:50:17.058936,0,0,1,-1,0,2,3,1
18:50:17.073925,0,-3,-2,-12,-43,-1,0,0
18:50:17.074925,0,-1,-1,0,9,-2,-2,0
18:50:17.096913,-3,1,0,-4,1,3,-1,-2
18:50:17.097909,3,1,2,11,4,1,2,1
18:50:17.119896,-3,-3,-3,3,-4,-1,-1,-3
18:50:17.119896,0,0,-4,-25,-2,0,2,4
18:50:17.134890,-3,-3,-1,3,-1,-2,-2,-3
18:50:17.141885,1,-1,2,-2,-4,0,2,0
18:50:17.156872,1,2,2,0,2,-7,3,1
18:50:17.157872,-2,2,2,2,15,1,1,1
18:50:17.179862,2,-1,2,-3,14,3,2,1
18:50:17.186857,0,1,0,-8,-2,0,-3,2
18:50:17.201848,0,0,2,-3,0,-3,-1,0
18:50:17.202847,-1,-2,0,2,-4,-1,-1,-1
18:50:17.216839,-2,-3,-1,5,1,-2,-4,-2
18:50:17.217835,-2,1,0,-9,-2,-1,-2,0
18:50:17.239821,-2,-2,0,9,3,2,1,2
18:50:17.239821,1,2,4,3,-7,-3,2,3
18:50:17.254813,-4,1,4,6,-1,5,-1,-3
18:50:17.254813,-2,-3,-3,-5,10,-3,-2,1
18:50:17.276801,0,-3,2,5,2,4,0,1
18:50:17.277798,3,-1,-4,-3,5,7,3,3
18:50:17.299784,1,-1,-2,19,-14,-8,0,-1
18:50:17.299784,-3,-1,-10,-27,-13,1,-3,-6
18:50:17.314775,-1,1,20,-3,107,19,0,-1
18:50:17.314775,8,3,-10,-26,22,-5,5,5
18:50:17.336761,-2,10,3,25,14,-14,-1,-1
18:50:17.337763,9,7,26,64,-23,11,5,6
18:50:17.359751,8,18,8,25,127,25,8,8
18:50:17.359751,23,43,47,113,127,-44,14,17
18:50:17.374738,-3,-22,-69,-79,-26,-45,-8,4
18:50:17.382734,-8,-19,-82,-128,-128,-128,2,-15
18:50:17.396727,-36,-95,-82,-37,127,34,-57,-29
18:50:17.397724,5,58,48,-115,4,127,24,13
18:50:17.419709,-28,-90,-126,-128,127,-12,-29,-13
18:50:17.420709,14,48,127,127,-128,-103,24,4
18:50:17.434701,-52,-88,-90,127,46,34,-48,-42
18:50:17.441699,49,127,83,-128,-128,-53,20,36
18:50:17.456690,-7,-86,-96,127,-128,-93,-6,-18
18:50:17.457690,-54,-4,74,-128,-128,-1,-34,-33
18:50:17.479672,64,38,50,127,114,69,32,38
18:50:17.479672,8,2,14,127,127,93,15,17
18:50:17.494667,55,118,66,-93,-128,-78,34,33
18:50:17.502662,-50,-75,-39,-128,127,-24,-38,-35
18:50:17.516652,-9,29,68,-95,-128,-128,-15,4
18:50:17.517652,75,4,98,127,127,127,107,46
18:50:17.539636,-14,41,-29,-128,-128,-128,-25,7
18:50:17.539636,5,41,72,127,-128,-106,-3,-3
18:50:17.554627,5,41,92,117,127,127,-6,-11
18:50:17.569620,9,39,60,-51,127,60,14,8
18:50:17.576616,31,111,93,-128,-128,-128,-8,8
18:50:17.577613,-105,-128,-128,-18,127,80,-23,-52
18:50:17.599601,19,72,50,-3,-39,-55,-30,13
18:50:17.600601,38,93,79,-1,-128,-7,-40,5
18:50:17.614589,-9,-69,-99,127,-128,-96,26,10
18:50:17.622584,32,0,9,-128,-128,-128,-4,22
18:50:17.637574,52,119,127,127,-128,-128,1,25
18:50:17.637574,29,114,89,127,127,127,23,-12
18:50:17.659561,16,42,-17,127,127,-33,13,15
18:50:17.659561,-22,-76,-66,-128,-128,-50,-10,-14
18:50:17.674555,3,5,57,127,-128,-46,-11,-12
18:50:17.682549,11,7,2,40,-128,28,8,12
18:50:17.696541,48,127,108,-52,-128,-128,1,5
18:50:17.697539,-45,-72,-46,-100,-128,-128,-16,-7
18:50:17.719527,18,90,96,-98,127,-101,-17,-3
18:50:17.720524,-13,-52,-45,-128,-128,-47,-22,-12
18:50:17.734517,-11,-44,1,56,127,22,1,-6
18:50:17.742513,30,23,30,127,127,-128,-3,12
18:50:17.756502,-60,-112,-16,125,-54,100,4,-9
18:50:17.757500,4,27,-5,-128,-128,-128,-32,-11
18:50:17.779489,-15,-30,-11,100,35,45,6,-9
18:50:17.779489,-7,-5,3,-128,122,-67,-7,-6
18:50:17.794480,-42,-59,-9,46,-128,-50,-20,-29
18:50:17.802476,-25,-128,-128,-120,127,127,9,-4
18:50:17.817463,25,86,65,-33,113,126,3,10
18:50:17.817463,-17,-32,-48,-42,-128,-128,-21,-12
18:50:17.839452,8,-5,10,127,127,-128,-8,1
18:50:17.840448,6,2,26,105,26,-8,4,7
18:50:17.854443,35,100,103,-1,-42,-75,5,19
18:50:17.862435,7,-18,-19,127,102,85,15,3
18:50:17.877426,-19,-105,-128,-58,127,63,3,1
18:50:17.877426,11,34,37,-128,-90,-62,-7,2
18:50:17.899415,-39,-94,-114,11,-128,-41,-15,-19
18:50:17.900412,15,31,11,-51,-128,-109,-7,7
18:50:17.914406,2,26,43,127,127,-34,-4,-10
18:50:17.922401,-8,-2,9,-74,127,120,12,-5
18:50:17.937388,45,90,127,127,93,-26,15,25
18:50:17.937388,14,21,10,-37,127,23,13,6
18:50:17.959378,-28,-56,-56,15,127,127,12,-15
18:50:17.960375,-38,-128,-128,-96,112,-52,-4,-4
18:50:17.974369,4,62,115,127,127,100,7,-1
18:50:17.982362,-6,3,-3,43,-128,-88,-7,-5
18:50:17.997353,-28,-73,-83,17,-112,-103,-5,-5
18:50:17.997353,22,47,100,127,127,127,27,13
18:50:18.019341,25,55,26,-128,-128,-128,2,15
18:50:18.020337,-24,-14,11,103,90,89,-5,-18
18:50:18.034331,11,10,31,110,127,127,30,9
18:50:18.042324,24,88,69,-33,-128,-10,10,15
18:50:18.057314,-30,-70,-64,-88,127,44,-6,-15
18:50:18.057314,10,6,20,127,127,127,17,7
18:50:18.079304,5,9,-24,-128,-33,-29,3,5
18:50:18.080303,11,7,10,127,127,93,6,6
18:50:18.102288,-12,-56,-51,116,127,127,12,-3
18:50:18.102288,16,45,66,90,-61,-55,-1,4
18:50:18.117278,2,-12,28,127,127,127,27,4
18:50:18.117278,-28,-70,-89,-34,-70,-92,-15,-9
18:50:18.139266,23,34,7,-77,-128,1,14,17
18:50:18.140263,-1,1,-7,-31,-15,38,4,0
18:50:18.162249,-11,-26,-21,6,6,90,0,-5
18:50:18.162249,10,7,34,19,127,77,11,8
18:50:18.177240,0,-1,13,105,-112,-28,0,3
18:50:18.177240,24,64,23,-53,-105,-83,-1,6
18:50:18.199229,-26,-71,-76,23,94,-4,-7,-10
18:50:18.200226,9,29,30,-3,-7,-2,-1,1
18:50:18.229211,5,4,-15,-120,-101,-128,0,3
18:50:18.230207,-4,-35,-35,-94,-76,-15,-7,3
18:50:18.237206,12,29,28,-14,-128,-56,-1,3
18:50:18.244198,5,-22,-46,-112,-128,-127,1,7
18:50:18.259192,0,0,-1,-8,127,-14,-9,1
18:50:18.260191,9,27,16,1,-72,-7,-2,4
18:50:18.282175,-3,-24,-12,127,127,82,6,-4
18:50:18.283174,1,-2,-12,58,13,-21,0,5
18:50:18.304164,0,2,-13,-123,-48,-19,-3,2
18:50:18.305161,0,0,1,11,31,64,1,-3
18:50:18.319155,-1,-4,0,-14,-11,-12,-2,-1
18:50:18.320151,1,-1,-6,-12,-10,-3,-4,1
18:50:18.342137,0,1,2,-3,1,-2,-1,1
18:50:18.342137,-1,-1,0,-2,1,1,-2,0
18:50:18.357128,-3,1,-2,-7,-4,-4,-3,1
18:50:18.364124,0,0,4,3,6,3,9,-15
18:50:18.379118,-26,-65,-13,-4,2,7,12,-42
18:50:18.380117,59,10,-1,-10,-18,-36,-128,-32
18:50:18.402103,116,-7,0,-7,-1,9,86,14
18:50:18.403100,82,-51,-21,-10,-2,33,127,85
18:50:18.417094,127,20,16,4,-11,-37,127,127
18:50:18.424089,68,-83,9,9,14,52,127,127
18:50:18.439080,-8,48,21,19,15,-6,127,-111
18:50:18.440076,-72,11,23,21,18,6,116,92
18:50:18.462066,-128,-37,-17,-14,-18,-18,37,-10
18:50:18.462066,-23,-46,2,1,26,66,31,127
18:50:18.477057,-114,-10,-31,-32,-51,-95,-52,-128
18:50:18.485049,58,32,12,17,24,79,-112,0
18:50:18.499040,-101,-85,-27,-128,-88,-21,23,-15
18:50:18.500040,-21,-15,5,124,127,-13,-34,-32
18:50:18.522029,115,65,34,106,106,116,63,81
18:50:18.523027,101,-73,-50,20,-20,-99,-128,13
18:50:18.537019,-69,-50,52,127,127,127,127,-25
18:50:18.544015,127,7,-24,30,-110,8,125,-30
18:50:18.559005,127,120,69,-98,-128,-95,127,95
18:50:18.560003,-109,2,11,127,114,108,-34,-115
18:50:18.581992,-128,-101,-68,-100,-128,-128,-100,91
18:50:18.582991,-53,88,10,59,-128,-54,-22,-128
18:50:18.596979,127,2,-19,22,127,122,-128,127
18:50:18.604974,25,24,2,127,127,43,76,-118
18:50:18.619965,127,94,20,5,35,52,-128,119
18:50:18.619965,-101,-17,15,-7,7,61,92,-71
18:50:18.641955,127,95,30,41,-128,96,127,127
18:50:18.642951,-21,-15,14,-118,127,62,76,85
18:50:18.656945,-21,18,21,116,127,5,-17,-50
18:50:18.671936,-19,-9,11,3,-128,-2,-1,3
18:50:18.678929,-83,-30,-15,10,127,42,37,-30
18:50:18.679928,27,-11,12,127,-64,36,-100,-49
18:50:18.701918,21,23,12,36,-128,-25,27,39
18:50:18.702914,-8,-12,3,66,-78,-21,41,-83
18:50:18.716908,-6,-4,-37,-52,-128,-33,23,-5
18:50:18.724900,127,36,60,127,127,95,-28,59
18:50:18.739894,24,18,-5,109,-17,-2,-11,113
18:50:18.739894,-8,23,-22,-53,-93,-39,30,127
18:50:18.761880,-39,-19,-4,50,5,-6,-109,-37
18:50:18.762884,-114,-25,5,125,127,-35,102,-68
18:50:18.776871,-118,-38,-51,-128,27,10,7,-87
18:50:18.784864,-92,-32,8,64,99,50,5,-56
18:50:18.799854,-6,17,-22,-1,-37,-44,-128,5
18:50:18.799854,-30,-52,-25,-34,-128,-83,91,52
18:50:18.821843,127,31,-8,-24,110,-23,-103,25
18:50:18.822839,-19,11,42,-62,-9,18,26,-16
18:50:18.836834,-61,-30,15,127,127,12,11,47
18:50:18.844826,-73,-10,16,73,24,16,-19,-26
18:50:18.859818,-19,5,-21,-59,-78,-57,-86,-54
18:50:18.859818,88,14,8,-7,-16,40,70,112
18:50:18.881806,-35,-13,12,-45,-57,-11,-15,-36
18:50:18.882802,-15,5,-8,-128,-128,-14,-68,8
18:50:18.896797,-23,-13,-4,68,127,1,-71,24
18:50:18.904792,4,11,27,12,-65,-9,23,15
18:50:18.919780,-1,0,-13,65,-7,-9,-9,-8
18:50:18.919780,-44,-15,6,70,-92,-26,-27,-58
18:50:18.942766,28,12,-7,-128,127,37,54,104
18:50:18.949761,-30,-18,-9,38,127,9,72,-44
18:50:18.956757,18,14,-4,-93,5,5,11,-21
18:50:18.964754,27,24,4,44,-49,6,20,41
18:50:18.979746,30,3,-5,37,-46,2,-20,31
18:50:18.979746,33,-3,1,14,92,10,-128,27
18:50:19.001731,-5,3,-1,-25,70,-14,39,9
18:50:19.002728,-26,-19,9,-15,127,46,-1,-31
18:50:19.024715,-16,-24,-7,3,110,22,-8,-26
18:50:19.024715,-1,-3,-3,54,-117,-8,-11,6
18:50:19.039705,2,-7,-15,-16,22,-1,1,-1
18:50:19.039705,-20,-15,-10,-120,-33,-17,-128,8
18:50:19.061692,-16,-5,-1,-83,-128,-4,18,-17
18:50:19.062693,-9,-7,-14,-53,127,-1,-15,-25
18:50:19.084677,-4,-6,-3,18,-85,-17,-64,-8
18:50:19.084677,30,13,-1,58,66,17,26,36
18:50:19.099667,18,0,26,69,25,1,1,-6
18:50:19.099667,28,11,5,-30,-128,5,-3,2
18:50:19.121655,-8,-4,-3,64,127,25,18,-27
18:50:19.122654,0,7,4,49,127,-5,32,-35
18:50:19.144640,17,10,12,-1,33,-6,-10,17
18:50:19.144640,-23,8,23,54,48,23,13,1
18:50:19.159630,-8,0,7,16,14,8,3,-11
18:50:19.159630,20,22,-7,-128,-128,-18,-19,16
18:50:19.181617,7,-3,-7,60,-128,-9,32,35
18:50:19.182617,36,9,3,23,32,6,-18,-8
18:50:19.204605,-13,-5,-15,6,-36,5,-18,3
18:50:19.205605,-2,1,2,-4,-128,-20,-5,-9
18:50:19.219594,-10,-8,-16,-16,60,11,-4,-8
18:50:19.220593,-1,-6,-10,95,39,-12,1,-1
18:50:19.242579,-17,-4,3,10,36,31,-33,17
18:50:19.242579,-10,-3,1,-35,-128,-21,6,-20
18:50:19.264568,27,15,-9,-9,-9,7,-4,56
18:50:19.264568,-13,-10,1,81,-6,-19,-46,-2
18:50:19.279559,-15,-8,-6,62,127,10,0,-13
18:50:19.279559,4,8,5,5,43,-16,3,3
18:50:19.302545,-22,-3,-7,-80,2,8,-28,-9
18:50:19.302545,-6,-1,-2,-27,5,-22,-1,-22
18:50:19.324531,-20,-11,-2,1,25,11,-21,-17
18:50:19.324531,-20,-5,-18,-24,-58,-28,-22,4
18:50:19.339522,7,11,1,36,18,-2,-19,-8
18:50:19.346519,14,6,0,19,-22,-10,11,21
18:50:19.361508,3,0,-11,-21,127,43,-9,24
18:50:19.362505,10,3,12,66,76,24,-20,1
18:50:19.384491,18,-5,-3,-5,-11,5,11,15
18:50:19.385494,-14,4,12,-48,127,13,-54,8
18:50:19.406478,23,7,-1,19,92,-3,9,5
18:50:19.407480,-10,-4,3,32,7,4,1,-3
18:50:19.422474,4,3,-4,-69,-10,-4,2,5
18:50:19.422474,19,4,7,27,13,0,-2,-3
18:50:19.444457,1,4,10,-3,115,-5,1,0
18:50:19.445455,-19,-3,-5,-8,40,19,-64,-23
18:50:19.459444,-4,-9,-7,-12,-19,6,-5,-20
18:50:19.467443,-19,-4,-1,-20,-23,-20,-26,-42
18:50:19.482430,9,5,-8,-106,-128,-58,6,-14
18:50:19.482430,-6,-8,-6,10,-128,-2,-3,0
18:50:19.504420,-14,-12,-9,6,29,-4,-8,-12
18:50:19.505419,4,3,-2,8,-25,-2,0,4
18:50:19.519411,2,-2,0,4,-19,-5,-8,-2
18:50:19.527406,-1,3,2,2,-7,-7,4,10
18:50:19.541396,-9,0,0,-3,-31,-6,-8,-9
18:50:19.542393,-1,-1,-2,-41,34,-2,4,1
18:50:19.564382,-4,-3,7,95,127,8,-2,-8
18:50:19.565379,4,5,-9,-41,11,-10,3,9
18:50:19.579373,-2,-4,-5,-28,-105,-2,-1,-3
18:50:19.587368,-5,-6,-3,1,36,1,6,-6
18:50:19.602359,3,3,-2,-13,-32,-1,-23,-1
18:50:19.602359,8,5,3,9,6,3,6,-8
18:50:19.624345,-2,-2,1,-1,-8,0,1,-2
18:50:19.625343,8,2,-8,-62,9,3,-2,6
18:50:19.639336,-3,-3,5,-33,-78,3,-2,-3
18:50:19.647328,2,1,-3,9,-101,-4,4,7
18:50:19.662320,-9,-9,1,18,27,-4,-6,-5
18:50:19.662320,-4,-3,-4,-10,-6,-2,-2,-4
18:50:19.684308,0,1,-3,-3,-5,-4,2,-2
18:50:19.685307,-10,-1,2,0,4,2,-6,-13
18:50:19.699296,9,8,2,-5,-2,-7,-4,17
18:50:19.707294,-4,-3,3,81,116,13,9,8
18:50:19.722283,-4,-3,-8,-10,127,21,11,-2
18:50:19.722283,-4,-1,4,-14,28,5,-7,-2
18:50:19.744271,5,5,0,-16,1,6,4,5
18:50:19.745270,-5,-5,-3,0,-2,-7,11,-7
18:50:19.759260,5,3,4,15,-9,10,-9,0
18:50:19.774252,-2,-1,-4,-10,-8,-6,-3,-5
18:50:19.782245,8,-3,-4,-16,-23,-12,2,16
18:50:19.783247,-2,-1,-3,2,3,5,-1,11
18:50:19.804234,15,1,-1,20,-2,-5,-5,-5
18:50:19.805233,-1,-2,-1,-15,-63,-17,-1,-3
18:50:19.827217,-5,-1,-3,11,24,-7,18,1
18:50:19.827217,1,0,-2,-22,-13,-9,17,2
18:50:19.842208,-3,-3,0,-9,-40,-8,0,-3
18:50:19.842208,-6,-3,1,11,39,5,0,-4
18:50:19.864196,-1,-2,-2,-6,-13,-1,1,-3
18:50:19.865196,1,0,0,-1,-8,-2,-1,2
18:50:19.887179,-1,2,0,2,4,-1,0,3
18:50:19.887179,2,-3,-1,-2,1,0,-3,-2
18:50:19.902171,-3,-2,-2,-2,-2,0,-4,-5
18:50:19.902171,-1,-3,-3,-2,-3,-1,-2,-4
18:50:19.924156,2,1,0,1,27,-3,2,8
18:50:19.925159,-3,-4,-2,-18,-33,-1,-6,-8
18:50:19.947143,2,-2,-1,-1,4,-1,3,10
18:50:19.947143,0,-1,-2,-12,-30,-1,-9,-4
18:50:19.962133,-1,1,5,9,16,4,1,-2
18:50:19.962133,0,-3,-3,-5,-7,-2,1,-4
18:50:19.992114,7,0,-3,-4,-7,-3,13,1
18:50:19.992114,-2,0,3,-1,4,4,1,0
18:50:20.007104,-1,-1,-4,-4,-1,-5,10,-10
18:50:20.007104,4,1,2,4,3,1,11,7
18:50:20.022096,-2,0,1,-1,-2,-4,-6,-9
18:50:20.022096,0,-1,-2,-4,-1,-7,-2,-5
18:50:20.044085,-5,1,1,-22,24,2,-14,-3
18:50:20.045081,0,0,2,30,28,-8,1,0
18:50:20.067071,-1,-5,-2,-2,11,0,-2,-2
18:50:20.068068,2,2,1,-15,-22,-3,0,1
18:50:20.082061,-2,-5,-1,2,-3,-3,0,-2
18:50:20.083062,7,1,0,2,-2,-4,-3,-4
18:50:20.104047,0,0,2,0,2,1,6,3
18:50:20.105045,0,0,-1,-4,-2,3,-2,1
18:50:20.127034,-4,-2,-1,-2,-3,-4,-21,-4
18:50:20.128030,2,1,3,5,7,2,11,-4
18:50:20.142024,1,5,0,-11,-36,-11,-9,-3
18:50:20.143024,3,0,-3,-8,10,4,-1,-3
18:50:20.164009,-2,0,0,-5,-4,-2,0,-3
18:50:20.165008,-9,-3,-1,-2,-4,-1,18,-7
18:50:20.186996,1,0,-1,1,2,0,2,2
18:50:20.187995,-1,1,2,-2,-1,-4,2,2
18:50:20.201984,1,0,0,0,-1,-3,-3,-3
18:50:20.202987,0,0,1,9,16,0,0,2
18:50:20.223970,0,-1,-1,1,2,-2,-1,-1
18:50:20.224970,2,0,-1,-1,0,2,-9,-1
18:50:20.246959,0,-1,-3,-40,-9,-5,0,-5
18:50:20.247959,-1,-3,0,-8,-3,-1,-1,5
18:50:20.261950,2,-3,-2,-6,-1,-3,7,5
18:50:20.262946,0,1,2,-4,-4,2,0,0
18:50:20.283934,-1,-4,-1,-3,0,-1,-14,-9
18:50:20.284934,-3,0,2,1,-1,-3,-3,-7
18:50:20.306922,-1,-3,-2,-3,-2,-2,0,-4
18:50:20.307919,-2,-1,1,3,2,3,2,1
18:50:20.321913,-2,-1,1,1,3,-3,2,2
18:50:20.322912,-1,-1,-1,2,-1,-2,-3,-5
18:50:20.344898,0,0,-3,-6,-7,-2,-23,-5
18:50:20.344898,0,-2,-3,-44,-50,-9,4,-2
18:50:20.366885,3,4,8,2,10,6,3,4
18:50:20.367884,1,-2,0,9,19,5,-1,-2
18:50:20.381875,-2,2,-3,-7,-3,1,8,18
18:50:20.382872,-5,-1,-1,2,-2,0,-3,-2
18:50:20.411857,-1,1,3,1,-1,1,0,3
18:50:20.412853,-1,-4,1,0,-1,-1,-16,-6
18:50:20.426848,0,2,2,1,0,-2,-8,-4
18:50:20.427846,-3,-3,-3,42,-5,-6,1,-6
18:50:20.441835,-6,-2,-1,-5,18,1,-13,-1
18:50:20.442834,0,-1,0,-2,-7,1,2,1
18:50:20.464822,-5,-2,1,-1,-42,-7,-7,-4
18:50:20.464822,-5,-1,-1,1,5,3,-1,5
18:50:20.486810,-3,-2,-2,1,0,-2,17,-1
18:50:20.487808,4,0,1,0,-2,-5,-7,-2
18:50:20.508796,0,1,1,2,5,1,20,6
18:50:20.509795,-1,2,1,0,-8,-3,-6,-3
18:50:20.523785,-4,-3,-3,0,2,-3,2,-4
18:50:20.524787,-3,-5,-3,-3,-6,-4,-2,-3
18:50:20.546773,-4,-3,-5,-9,-3,-1,-1,-8
18:50:20.547773,2,-1,3,24,-16,0,0,1
18:50:20.561764,-4,2,-3,-3,8,-4,-1,-5
18:50:20.562760,-2,-3,1,-3,-3,-6,-3,2
18:50:20.584747,1,1,1,2,0,2,4,13
18:50:20.584747,1,-4,0,-2,0,2,-19,8
18:50:20.606736,-7,-4,-5,-1,-4,-1,4,-4
18:50:20.607736,-1,-1,0,2,1,0,-1,-2
18:50:20.629720,-4,-3,-1,-1,-2,-1,-2,-3
18:50:20.629720,3,3,-1,-5,-10,-5,1,1
18:50:20.644710,1,2,-2,4,9,2,0,1
18:50:20.644710,-4,1,-1,0,-6,-1,-2,-1
18:50:20.666699,-3,-2,-2,4,15,0,-2,0
18:50:20.667698,-3,1,2,0,4,-1,0,2
18:50:20.681687,-1,1,-3,-3,2,1,-2,1
18:50:20.689685,-3,-1,-4,-2,-4,-5,-1,-1
18:50:20.704672,2,-2,-2,-4,-5,1,0,-5
18:50:20.704672,0,1,3,-1,-3,2,15,-2
18:50:20.734654,6,1,-3,-43,0,5,-6,23
18:50:20.734654,-5,-2,-1,-7,-5,-4,0,-6
18:50:20.749646,-5,0,0,9,-2,-3,0,-3
18:50:20.749646,-6,-4,-3,-1,3,-3,-1,-3
18:50:20.764635,2,-1,-1,-6,-5,2,0,1
18:50:20.764635,-2,-4,-3,0,0,0,0,0
18:50:20.786624,1,-1,-1,-4,-11,-4,-4,0
18:50:20.787624,0,0,0,6,6,-5,-9,1
18:50:20.809610,-4,0,0,-1,1,3,3,-3
18:50:20.810608,-1,-1,2,-3,-1,2,-13,-4
18:50:20.824599,-2,-2,-1,1,1,-4,0,-2
18:50:20.824599,8,1,-3,0,-4,0,1,0
18:50:20.846587,7,0,0,1,0,6,15,23
18:50:20.847584,-1,-3,1,27,3,-2,-4,-3
18:50:20.876567,0,-2,1,-14,-7,-4,-2,3
18:50:20.877566,-1,0,2,0,3,2,11,0
18:50:20.884569,-3,1,-1,0,-7,-3,-2,-5
18:50:20.885563,-1,-3,-1,0,1,3,-2,-1
18:50:20.906549,-1,-2,-1,-4,-3,2,-1,-2
18:50:20.907547,-2,-3,-4,-2,-3,-2,-1,0
18:50:20.929536,-3,-1,-2,-1,3,3,2,-4
18:50:20.929536,-2,0,-1,5,-3,-3,-1,1
18:50:20.944527,-2,-1,-2,-4,-7,-4,-3,0
18:50:20.945523,3,3,2,37,18,0,2,3
18:50:20.966512,-1,-1,-3,-5,-8,-4,0,1
18:50:20.967512,-1,-2,1,-2,-4,-4,-3,-2
18:50:20.989499,-5,-8,-2,-2,0,0,-2,-4
18:50:20.990498,-2,1,-1,-1,-2,0,1,-4
18:50:21.004489,0,0,-2,-2,-8,-6,-3,-1
18:50:21.004489,-2,3,3,6,-2,-1,8,0
18:50:21.026474,-2,-1,-2,0,-1,0,-7,1
18:50:21.027475,-1,-1,1,-3,-2,-1,2,-2
18:50:21.049461,-2,-1,-1,8,-1,-4,6,7
18:50:21.050462,-5,0,-1,4,4,-5,-4,-2
18:50:21.064452,9,2,1,-3,-2,1,-8,-9
18:50:21.065451,1,1,0,-1,6,0,-11,-1
18:50:21.086438,0,1,0,-3,4,4,3,5
18:50:21.087435,1,-3,0,1,-1,0,2,-3
18:50:21.109422,-1,1,-1,-2,-1,1,0,0
18:50:21.110421,1,0,-3,-5,-6,-1,1,0
18:50:21.124415,1,1,0,8,3,1,-3,-6
18:50:21.125414,0,-1,0,0,8,4,7,17
18:50:21.146399,-5,-1,1,0,-4,-3,-4,-8
18:50:21.147400,0,0,-1,1,-2,-3,-19,-1
18:50:21.169387,-9,-3,2,4,6,2,-6,-9
18:50:21.170386,1,1,-2,-4,-5,-1,3,23
18:50:21.184374,-5,-6,-3,1,-2,-6,0,-6
18:50:21.185375,-5,-1,-2,-4,-4,-2,-13,-7
18:50:21.206361,-1,-2,-1,-2,4,-1,-10,8
18:50:21.207364,-2,-5,-1,-1,-1,2,8,2
18:50:21.229350,-2,-3,-1,34,-1,0,10,4
18:50:21.230346,0,0,1,-15,10,0,2,-1
18:50:21.244341,-2,1,2,5,0,1,0,-1
18:50:21.245340,2,1,-1,-2,1,0,1,11
18:50:21.267325,1,0,2,-1,-3,1,2,-1
18:50:21.267325,-1,-3,-1,3,0,-3,-3,-2
18:50:21.289313,2,1,2,0,-6,0,-1,0
18:50:21.290310,3,0,1,14,42,0,-4,-4
18:50:21.304300,0,1,1,-2,-2,2,-7,5
18:50:21.305300,0,-1,-2,-1,-4,-3,3,-5
18:50:21.326286,-1,-1,-3,-1,1,-3,-1,-7
18:50:21.327288,-2,-4,-2,-3,0,4,2,-4
18:50:21.349273,-1,-1,-1,-19,-2,-3,-7,-4
18:50:21.350272,0,1,2,6,6,6,2,-3
18:50:21.364263,0,1,2,-2,0,1,0,0
18:50:21.365265,1,0,2,32,-1,-1,-3,-2
18:50:21.387249,4,2,3,1,11,5,3,8
18:50:21.387249,-3,0,-1,-6,-8,-2,-4,-1
18:50:21.410237,-4,-3,2,1,-3,-6,-5,-4
18:50:21.410237,0,0,-3,-2,-6,-7,4,1
18:50:21.424229,1,0,0,-4,0,4,-10,-7
18:50:21.425229,-2,-3,1,0,-1,-3,0,-4
18:50:21.454210,0,0,0,2,4,-1,5,1
18:50:21.455207,-2,0,-3,-14,-50,-3,-19,0
18:50:21.469201,1,1,-1,4,16,-5,0,3
18:50:21.470198,-6,-5,-3,-5,-4,3,4,2
18:50:21.484192,0,1,-1,-3,-5,3,7,6
18:50:21.485191,-3,-3,-1,15,-12,-4,-2,-3
18:50:21.507174,-2,-4,-2,-2,11,-4,-17,-8
18:50:21.507174,1,-1,-2,-2,-7,-2,2,-2
18:50:21.529164,-6,-4,-5,-2,-2,-5,0,2
18:50:21.530162,-4,-4,-2,-2,-2,-5,-16,-4
18:50:21.544155,0,-2,-1,0,6,4,4,2
18:50:21.545154,-3,-1,-1,-1,2,0,-1,-1
18:50:21.567137,3,2,-2,-3,8,-3,2,4
18:50:21.567137,-1,-2,-4,-3,-6,-4,-5,-4
18:50:21.589125,-2,-2,3,13,12,0,-1,-6
18:50:21.590126,3,-1,-3,-1,5,0,1,-2
18:50:21.612112,-3,-3,1,5,12,0,2,-3
18:50:21.612112,-3,-4,1,-2,-5,-5,-17,-5
18:50:21.627103,-3,-1,-2,1,0,3,2,-1
18:50:21.627103,-1,-3,0,-1,-2,-2,5,-10
18:50:21.649089,2,2,0,-1,-13,-2,4,-1
18:50:21.650086,9,2,-1,-9,-40,0,1,-1
18:50:21.672075,1,4,1,1,3,2,-3,2
18:50:21.672075,-3,2,3,0,-4,-4,-2,-2
18:50:21.687066,0,2,-1,0,-1,-1,12,6
18:50:21.687066,-3,-1,-4,-37,-19,-4,-5,-3
18:50:21.709049,-4,0,0,2,10,3,0,-4
18:50:21.710049,0,2,-1,-4,-5,0,-1,3
18:50:21.732038,-1,1,-2,-1,-3,-4,-4,-1
18:50:21.733035,1,-1,-1,-2,-1,0,1,-2
18:50:21.747029,0,4,-3,11,3,1,-3,-3
18:50:21.747029,1,-1,-2,-2,2,1,5,12
18:50:21.770012,2,0,-2,0,3,5,5,6
18:50:21.777010,-1,-1,1,-3,-3,0,3,0
18:50:21.791999,0,0,1,0,0,2,-1,-2
18:50:21.791999,-1,0,-2,-1,2,-1,1,-4
18:50:21.806992,-3,-5,-1,1,0,1,0,1
18:50:21.807991,-1,0,3,-4,-3,0,3,1
18:50:21.829976,-2,1,0,0,0,-5,-8,5
18:50:21.829976,1,-3,0,1,-1,0,4,4
18:50:21.851964,0,1,0,-3,2,-2,-1,-3
18:50:21.852963,-2,-3,-1,9,3,0,-4,-2
18:50:21.866955,2,-3,-2,-7,-3,-1,1,-1
18:50:21.867951,0,2,-2,-1,-3,1,4,3
18:50:21.888938,1,-3,3,0,2,0,-2,-1
18:50:21.889937,-2,-3,-1,-1,-1,-4,-4,-1
18:50:21.911927,1,2,-4,1,0,-3,1,-1
18:50:21.912926,-3,-1,1,1,-3,-1,-2,-2
18:50:21.926917,5,-1,-2,-2,-4,-2,10,-1
18:50:21.927915,2,-2,1,0,-5,-1,4,-4
18:50:21.949901,-3,-1,-3,-2,2,2,0,-2
18:50:21.949901,1,1,0,7,-1,-3,-1,19
18:50:21.979882,-6,1,-3,-4,0,1,1,-7
18:50:21.979882,-3,-4,0,-2,1,0,4,-1
18:50:21.986880,0,-2,-1,-1,-4,-4,-2,-5
18:50:21.987880,2,0,0,-12,-50,-1,-1,2
18:50:22.009863,-3,-3,-2,-33,4,0,-2,-3
18:50:22.009863,2,4,4,1,2,-2,6,6
18:50:22.031852,-1,-3,0,-6,-5,-5,-3,3
18:50:22.032848,-6,-3,-3,-1,-6,-7,0,-1
18:50:22.046843,-4,-2,-2,1,1,0,-1,-6
18:50:22.047842,-5,-4,-2,-4,-9,-2,-1,-6
18:50:22.069827,-2,-2,0,9,3,1,-17,-5
18:50:22.069827,-1,-1,-2,-1,1,1,2,-4
18:50:22.091812,-4,0,-1,-1,-2,-4,-1,1
18:50:22.092814,0,-1,-3,-4,-2,-3,-3,-3
18:50:22.106806,-3,0,2,-3,-1,-1,-9,-6
18:50:22.107804,0,-1,0,1,3,2,2,-5
18:50:22.129789,-1,-1,-3,-1,-4,-1,1,-3
18:50:22.129789,-3,-3,0,0,-3,-3,-1,-5
18:50:22.151775,0,-5,0,0,-4,-6,-4,-1
18:50:22.152774,0,-4,-3,-7,-36,1,0,2
18:50:22.166767,-1,-3,-1,-15,4,-4,4,0
18:50:22.174761,-2,1,-1,26,4,0,-7,-4
18:50:22.189752,2,0,-1,-9,4,-1,1,0
18:50:22.189752,-8,-4,-4,-7,-6,0,-8,1
18:50:22.211741,-4,0,-3,2,1,-1,4,0
18:50:22.212740,-1,0,1,2,-1,-1,3,1
18:50:22.226731,-1,0,-1,-1,-6,0,0,-2
18:50:22.234726,2,0,-1,-1,-1,-5,-2,0
18:50:22.249717,6,2,-1,-1,2,3,5,-2
18:50:22.250715,-2,-1,-2,-3,-1,-5,-4,-4
18:50:22.271704,3,2,0,11,3,-3,-2,5
18:50:22.272700,-2,-1,0,-2,-2,0,0,-1
18:50:22.286691,-1,1,-1,-2,-3,-2,10,-14
18:50:22.294688,3,1,2,1,0,-3,4,2
18:50:22.309680,-4,2,1,-2,-4,0,-4,-5
18:50:22.310679,-1,-1,2,1,3,0,0,-4
18:50:22.331666,2,-1,-1,-3,-5,0,-1,-3
18:50:22.332665,2,-1,-2,1,-2,-2,0,-5
18:50:22.346653,-1,0,-4,-1,1,7,2,1
18:50:22.354652,-2,-6,-1,0,0,0,0,2
18:50:22.369648,5,3,4,6,9,2,1,5
18:50:22.370639,-3,2,0,-2,2,-1,-1,-4
18:50:22.392626,-4,-5,-2,-2,0,-1,-2,-3
18:50:22.392626,0,3,1,7,3,0,0,-2
18:50:22.407619,-2,-1,0,-6,-3,1,0,-8
18:50:22.414615,4,-1,0,2,0,3,-6,-1
18:50:22.429606,0,-4,0,0,4,-2,2,1
18:50:22.429606,-2,-3,-1,-2,-1,1,3,-4
18:50:22.451590,-4,-3,-4,-5,2,1,3,-2
18:50:22.452589,0,0,2,0,0,-3,-3,-4
18:50:22.466580,2,-1,0,0,-3,-1,0,3
18:50:22.474578,1,-1,-3,-1,0,0,-2,0
18:50:22.489568,1,0,-3,-1,0,-4,1,0
18:50:22.490568,1,1,-1,-2,-2,-1,1,1
18:50:22.511551,1,-2,0,1,-2,-4,1,-1
18:50:22.512554,1,-4,-2,-1,1,-2,11,3
18:50:22.527543,-5,-3,-3,-3,0,-1,0,-3
18:50:22.534540,-3,0,0,-3,-6,-2,0,-1
18:50:22.549531,-1,-2,-3,0,-1,-5,2,2
18:50:22.550539,9,-1,1,-1,-2,2,0,-1
18:50:22.571515,-4,-2,1,5,5,-3,-2,0
18:50:22.572517,0,-5,1,1,1,1,-2,-2
18:50:22.586505,2,2,0,-3,-3,1,-10,2
18:50:22.594504,-2,0,-1,-2,-1,0,3,-2
18:50:22.617486,-3,-4,-4,-2,1,1,1,-1
18:50:22.617486,-5,-4,-4,-1,-3,-2,-2,-3
18:50:22.632477,-1,0,-1,1,-1,1,-3,2
18:50:22.632477,0,0,-2,-1,1,-2,-1,0
18:50:22.646470,2,2,-1,3,4,0,2,2
18:50:22.654466,-1,0,1,0,-2,2,-3,0
18:50:22.669457,0,-2,-3,-3,-2,1,5,5
18:50:22.670456,-3,-3,-1,-1,-5,-4,-23,-5
18:50:22.692439,-3,-4,-2,-1,1,0,1,0
18:50:22.692439,-4,-1,1,-2,1,0,0,0
18:50:22.714429,-3,-3,-2,-9,-5,0,-1,-2
18:50:22.715426,-3,-3,-1,5,2,-1,1,-3
18:50:22.729419,-3,-5,-2,-3,1,-2,1,-1
18:50:22.730416,-2,0,-5,-4,-3,-2,-1,-6
18:50:22.752405,-1,-4,-3,-2,-3,-2,1,1
18:50:22.752405,-1,2,0,-1,-3,1,5,2
18:50:22.767396,0,-1,0,1,1,2,-3,1
18:50:22.774392,0,2,0,0,1,-1,-3,-3
18:50:22.789382,0,0,1,0,-2,-1,10,0
18:50:22.790381,1,-3,-1,-2,-1,3,-6,4
18:50:22.812368,-2,2,-1,-1,7,2,4,-5
18:50:22.812368,0,-2,-2,-1,-5,-3,2,0
18:50:22.834351,-1,-1,-5,-20,-13,-4,-3,-2
18:50:22.835354,-2,-1,2,6,10,0,0,-4
18:50:22.849342,0,-3,-2,-5,-6,-3,-4,-4
18:50:22.850342,-3,-2,-1,-2,-1,0,-3,-8
18:50:22.872328,1,0,-3,1,-2,0,-10,0
18:50:22.872328,-4,0,0,-3,-2,-1,-2,-1
18:50:22.894314,-2,0,0,-2,2,-3,-1,-1
18:50:22.895313,0,-4,-1,1,-1,0,-2,-3
18:50:22.909305,2,1,-2,0,-3,-4,1,3
18:50:22.910305,-1,-1,-1,-2,0,-3,-3,-5
18:50:22.932291,2,-3,0,1,-1,3,-2,3
18:50:22.932291,-2,2,0,-3,-2,-3,0,0
18:50:22.954280,2,1,-1,0,3,0,0,-2
18:50:22.955277,-2,-3,0,1,0,2,-5,-7
18:50:22.969268,1,-1,0,1,-1,0,3,3
18:50:22.970268,-1,0,-3,0,-3,0,-14,-5
18:50:22.992254,1,-1,-1,2,0,-1,0,-3
18:50:22.992254,-2,-1,0,9,4,-2,-1,0
18:50:23.014243,1,0,-4,-3,-4,0,3,0
18:50:23.015240,-3,1,0,-2,-2,0,2,0
18:50:23.029234,0,-1,-1,-1,-1,1,1,0
18:50:23.030233,-2,-3,-4,0,-4,1,0,0
18:50:23.052217,0,1,0,-1,1,0,-1,-1
18:50:23.053220,-4,-4,-3,-3,-3,-1,-3,-1
18:50:23.082198,-4,4,-2,1,-3,0,-12,-4
18:50:23.083201,1,-1,1,-2,-5,-5,-3,-6
18:50:23.089195,1,4,-1,1,2,4,-6,-7
18:50:23.097191,-1,-2,-1,-1,-1,-2,3,0
18:50:23.112180,-1,0,-2,-2,-3,3,0,-2
18:50:23.112180,0,-2,-2,-1,2,2,-1,0
18:50:23.134168,-4,-4,0,-1,-4,-2,-2,-1
18:50:23.135168,-4,-2,-1,-1,2,-2,0,4
18:50:23.149156,4,0,0,-1,1,-2,-8,-8
18:50:23.157151,-5,1,-1,-1,-2,0,2,-1
18:50:23.172142,-2,-2,-1,-2,-1,-4,-22,1
18:50:23.172142,0,-2,1,0,0,-1,1,1
18:50:23.194131,-1,-4,-2,-4,-5,-5,1,1
18:50:23.195128,1,-1,-3,6,0,-2,1,3
18:50:23.210122,-2,-2,-2,-7,-5,1,-2,-2
18:50:23.217115,-5,2,-2,-1,0,-2,-1,-2
18:50:23.239101,-2,0,-1,-1,-2,-1,-3,0
18:50:23.240100,2,2,1,1,3,-3,-3,-3
18:50:23.254092,-8,-7,0,1,-2,0,-5,4
18:50:23.255093,-4,0,-2,-1,-4,-5,2,-3
18:50:23.269085,2,-2,2,1,-3,1,-3,-2
18:50:23.277080,-1,-3,-1,-3,-8,-2,1,-3
18:50:23.292071,-1,1,1,1,4,3,0,-2
18:50:23.293068,-1,-2,-1,-2,0,-3,-8,-10
18:50:23.315054,3,1,3,-1,-3,1,-5,-1
18:50:23.315054,-3,0,-2,-4,-1,2,1,-5
18:50:23.329045,0,-2,-1,3,-3,-4,2,0
