timestamp,emg1,emg2,emg3,emg4,emg5,emg6,emg7,emg8
15:34:11.822284,-1,-2,2,-2,1,-1,-1,-2
15:34:11.824279,-5,-3,-2,-2,-1,-1,-4,0
15:34:11.832277,0,-2,-4,-3,-3,1,-5,-5
15:34:11.847266,0,1,-1,0,0,2,-1,-3
15:34:11.847266,-6,-1,-4,-1,-6,3,-1,-1
15:34:11.870251,-1,-3,-1,0,-3,-3,-4,-3
15:34:11.870251,-2,-4,-1,-2,-2,1,0,-2
15:34:11.884241,-1,-1,-1,-2,0,-2,-3,2
15:34:11.891240,-2,0,-2,-1,3,1,-3,-1
15:34:11.906231,2,-1,0,3,3,-1,1,2
15:34:11.907229,-2,-1,-1,-1,-1,0,-1,-1
15:34:11.929214,-3,-1,-2,-3,-3,1,-3,-1
15:34:11.929214,-1,0,1,-1,-2,1,-1,0
15:34:11.944204,-3,-4,-2,-3,-3,-1,0,-4
15:34:11.951203,0,-1,2,2,4,4,1,1
15:34:11.967192,-2,-3,1,-3,-1,-3,-1,-2
15:34:11.967192,-3,-3,-1,0,-1,-2,-1,-1
15:34:11.989178,1,0,0,-1,-1,-2,0,2
15:34:11.989178,-1,0,-2,-1,0,0,0,-4
15:34:12.004168,1,-3,0,-1,-1,0,-2,0
15:34:12.011164,0,0,-3,-3,1,-2,-2,-3
15:34:12.026153,1,-1,-2,-2,-3,-5,-1,2
15:34:12.027153,-2,-2,-2,-3,-6,-2,-1,-1
15:34:12.049139,-1,1,1,2,-2,-6,0,1
15:34:12.050140,2,2,1,1,-1,-1,1,2
15:34:12.064131,-2,-3,-1,-2,-3,1,-3,-2
15:34:12.071130,0,1,0,3,1,1,-3,-1
15:34:12.086118,-1,-1,-1,-2,-5,-3,2,-1
15:34:12.087116,-5,-2,-2,-2,-1,1,0,-1
15:34:12.109103,-2,-6,0,-2,-3,-1,-3,-2
15:34:12.109103,3,1,1,2,2,-1,-2,-2
15:34:12.124094,-3,-5,-3,-5,-1,-3,-1,-3
15:34:12.132092,0,0,-1,-2,-2,-1,0,-1
15:34:12.146083,-1,-1,-2,-6,-7,-3,-6,-3
15:34:12.147079,-5,2,-3,1,-4,1,-1,-1
15:34:12.169066,3,0,1,2,0,2,-1,2
15:34:12.169066,-2,-1,0,0,1,-4,-2,-3
15:34:12.184056,-1,0,-1,5,2,-2,0,2
15:34:12.191054,-2,-5,-1,-4,-2,-1,-2,-5
15:34:12.207043,0,2,0,1,1,-5,1,0
15:34:12.207043,-3,0,1,0,-3,-1,1,0
15:34:12.236026,1,1,0,-2,-2,0,-1,-1
15:34:12.237023,-2,-3,-1,-1,-5,-3,-7,-1
15:34:12.244019,-1,1,-1,-3,1,0,-1,-2
15:34:12.252015,2,-2,-2,-3,-2,-2,0,-2
15:34:12.267004,-4,-2,0,3,0,1,0,-5
15:34:12.267004,3,-1,-4,-4,2,-1,-1,2
15:34:12.296985,-2,-2,0,1,3,5,3,0
15:34:12.296985,-2,-3,0,-1,2,-2,-1,0
15:34:12.303981,-1,1,-1,-5,0,-4,0,0
15:34:12.311976,-3,0,2,-1,-1,0,-2,-3
15:34:12.325970,-3,0,1,-1,-3,1,-3,1
15:34:12.326966,0,1,2,2,2,3,0,0
15:34:12.348953,-1,2,1,0,0,0,-5,-3
15:34:12.349954,0,-2,-2,-3,-4,-2,0,-1
15:34:12.371939,0,-3,0,0,-1,-3,-2,0
15:34:12.371939,-1,2,1,0,-3,-1,-2,2
15:34:12.386939,-3,-1,-3,-3,-2,-3,-2,-2
15:34:12.386939,-1,-6,-4,-5,-5,1,-3,-6
15:34:12.408918,0,1,1,0,-1,0,-3,3
15:34:12.409917,1,0,0,-1,-1,4,1,-4
15:34:12.431902,1,0,-4,0,2,1,1,0
15:34:12.431902,0,-5,0,-2,-3,-2,-2,-1
15:34:12.446893,-1,-3,0,0,-3,1,0,-2
15:34:12.446893,1,0,-1,0,-1,-3,1,2
15:34:12.468880,2,-2,0,0,-1,-1,3,-1
15:34:12.469883,0,1,-2,0,4,2,1,1
15:34:12.491866,1,-1,-2,-2,0,-1,-1,-2
15:34:12.491866,-1,-1,-2,-3,-3,-2,1,0
15:34:12.513852,0,-1,-5,-5,-3,-5,-2,0
15:34:12.514852,-4,0,0,-1,-3,0,-2,0
15:34:12.536838,0,1,0,1,-2,-2,0,0
15:34:12.536838,0,0,0,-2,0,-3,2,-2
15:34:12.551827,-2,1,0,1,-1,0,-1,-1
15:34:12.551827,-4,0,-2,-2,-1,-1,-3,-3
15:34:12.566820,-3,-1,-2,-1,-4,-2,-1,-1
15:34:12.566820,-2,1,-1,0,-2,2,-3,1
15:34:12.588804,1,-2,0,-1,-3,-2,-3,-3
15:34:12.589805,0,0,-3,-1,-4,-6,-3,0
15:34:12.611792,1,-1,-1,-2,1,1,1,0
15:34:12.611792,4,0,1,1,-3,-5,0,-1
15:34:12.626781,1,0,0,0,2,-3,3,-2
15:34:12.634778,-1,0,-3,-3,-2,-3,-1,-3
15:34:12.648768,0,0,0,-2,-1,-1,1,-1
15:34:12.649768,1,-2,-1,-1,-1,-3,-1,-2
15:34:12.671753,-1,-2,1,0,-2,0,1,0
15:34:12.671753,0,1,2,0,-1,-1,-2,1
15:34:12.693742,-1,0,-1,-3,-3,1,-1,0
15:34:12.694739,0,-1,-2,0,-1,-3,-1,0
15:34:12.708734,-1,0,-3,-6,-1,1,0,-4
15:34:12.709731,-4,-1,-4,0,-5,0,-4,-4
15:34:12.731718,0,-2,0,-4,-2,-3,-2,1
15:34:12.731718,0,-2,1,-2,-3,-1,-1,0
15:34:12.746708,1,0,0,1,-2,-1,-1,-1
15:34:12.753705,1,1,0,1,-1,0,1,2
15:34:12.768695,-6,-2,-3,-3,-4,-4,-3,-2
15:34:12.769693,-2,-1,3,-1,-4,-6,0,0
15:34:12.791680,0,0,-1,-2,-2,-1,-1,-5
15:34:12.791680,-1,1,-3,-2,2,-2,1,0
15:34:12.806671,-2,-2,-3,-4,-1,-3,0,-2
15:34:12.821662,2,-1,0,2,7,6,2,3
15:34:12.830657,-4,0,-2,-2,-3,-1,1,-2
15:34:12.830657,-1,0,0,-1,-1,-7,-3,1
15:34:12.851642,3,-2,-1,0,-4,-4,-4,-5
15:34:12.851642,-2,-1,-1,2,2,-1,-1,1
15:34:12.866634,-3,-4,-5,-1,-1,1,0,0
15:34:12.873631,-1,-2,0,3,2,-1,-4,-4
15:34:12.888625,-1,-2,-3,-4,0,1,0,-1
15:34:12.889621,-1,-4,-1,1,-4,-4,-3,-2
15:34:12.911606,0,-1,-3,-5,-3,0,-2,2
15:34:12.911606,1,2,0,4,4,2,-1,-2
15:34:12.926596,-2,0,2,1,-1,-3,1,-1
15:34:12.926596,-1,-3,0,-5,-3,-4,-4,-6
15:34:12.948601,0,-2,2,-1,-1,0,-1,0
15:34:12.949581,-2,-1,1,-1,0,1,-1,-5
15:34:12.971569,-3,2,-1,-1,1,-3,-2,0
15:34:12.971569,0,3,1,1,2,1,0,2
15:34:12.986557,2,1,2,-4,-1,-3,-4,0
15:34:12.986557,2,0,0,2,3,2,2,3
15:34:13.008547,-2,-3,-2,0,-1,0,-2,-2
15:34:13.009544,1,-3,-3,-3,-5,0,2,1
15:34:13.031531,2,4,6,3,6,-1,2,4
15:34:13.032531,0,-1,0,3,-3,2,-2,1
15:34:13.046521,1,2,0,-1,0,-5,-1,0
15:34:13.054520,-1,-1,-1,-2,-8,-3,-1,-3
15:34:13.068509,-2,0,-1,1,1,-3,-1,-2
15:34:13.069506,0,-3,-3,-3,1,0,-3,-2
15:34:13.091494,0,2,1,2,-1,-1,1,0
15:34:13.091494,-2,-6,-3,-3,-2,-1,-5,-5
15:34:13.114478,3,0,-1,-1,0,-2,-1,0
15:34:13.114478,-4,-3,0,0,-2,-2,-2,1
15:34:13.129470,1,-2,2,-1,-3,-6,1,5
15:34:13.129470,-2,-2,-4,-3,-2,-4,-1,-4
15:34:13.151457,-2,-1,-3,-4,-2,-1,-1,-3
15:34:13.152456,-1,0,-3,-3,-3,-2,0,3
15:34:13.174440,1,0,1,2,3,2,4,3
15:34:13.174440,-1,-4,-5,-2,-2,-3,-3,-2
15:34:13.188432,-2,0,2,-4,-1,0,-2,0
15:34:13.189432,-3,-5,-3,-5,1,1,-4,-2
15:34:13.211420,-2,-5,-5,-1,-4,1,-1,-2
15:34:13.212418,0,0,-1,-5,-1,-2,-4,0
15:34:13.234405,1,1,-1,1,0,-2,-2,-3
15:34:13.234405,0,-1,-1,1,-2,0,2,0
15:34:13.249412,-3,-1,-3,0,3,-1,-1,-2
15:34:13.249412,1,-3,1,-1,-3,-2,-3,-1
15:34:13.271382,-2,-2,-2,-3,-1,-2,-2,-2
15:34:13.272395,1,-1,1,6,-7,-1,0,2
15:34:13.294372,-4,-5,9,12,5,-4,-3,1
15:34:13.294372,3,3,-14,-6,8,11,4,5
15:34:13.309359,-3,-3,3,4,-7,-6,-8,-3
15:34:13.309359,-1,2,16,-16,-6,1,2,0
15:34:13.339348,-1,-5,-13,10,1,-1,-2,0
15:34:13.339348,0,1,-5,-12,-1,1,-2,1
15:34:13.354332,-4,-11,-1,-37,-10,-7,-3,-6
15:34:13.354332,-7,-9,-41,-33,-19,-5,-3,-4
15:34:13.369320,-6,1,39,105,31,-1,-4,-3
15:34:13.369320,-2,-8,-21,44,58,12,0,0
15:34:13.391311,-1,2,6,-43,-24,-9,-1,-1
15:34:13.392308,1,12,58,-12,-49,6,2,3
15:34:13.414293,4,1,-10,-63,-26,1,7,5
15:34:13.414293,-11,-17,-14,4,74,-9,-10,-11
15:34:13.429283,-3,-9,-4,-38,-126,-21,-4,-2
15:34:13.429283,8,27,37,80,127,93,8,2
15:34:13.451269,-1,-23,-22,13,-104,-64,-5,5
15:34:13.452270,-24,-21,20,113,-128,-37,-14,-21
15:34:13.474256,41,74,-63,-128,127,82,22,23
15:34:13.474256,-71,-103,9,127,127,-37,-40,-44
15:34:13.489248,24,28,98,104,127,15,12,14
15:34:13.489248,-29,-48,-78,62,127,-15,-11,-18
15:34:13.511233,-15,-39,3,-128,-128,-75,-17,-11
15:34:13.512232,8,49,59,17,-40,-42,0,-1
15:34:13.526222,26,18,-128,122,-128,-28,9,20
15:34:13.527224,-54,-123,-128,-128,-128,-83,-39,-35
15:34:13.541219,16,32,114,-28,-128,-30,16,2
15:34:13.549210,-25,-38,-19,-128,127,-7,-18,-18
15:34:13.571195,22,43,47,-52,-128,63,29,20
15:34:13.572196,-16,-14,11,29,120,-5,-17,-8
15:34:13.594180,43,48,30,96,-20,31,25,31
15:34:13.594180,-5,15,-2,-65,-89,-5,2,-1
15:34:13.609173,24,31,26,81,55,43,4,10
15:34:13.609173,-17,-10,-50,-95,-128,-36,-9,-11
15:34:13.631161,-39,-128,16,127,127,127,17,22
15:34:13.632158,54,127,18,-128,-128,-27,11,0
15:34:13.654144,-8,-42,-2,-128,127,44,-2,2
15:34:13.654144,-79,-128,-128,-25,127,1,-34,-33
15:34:13.676133,28,92,48,-20,-128,-53,5,10
15:34:13.677131,-3,9,-26,-88,68,-44,-20,-7
15:34:13.691123,-12,-69,-5,127,127,46,15,12
15:34:13.692120,47,104,74,-90,-72,-15,9,15
15:34:13.714106,19,29,54,-10,91,26,-6,4
15:34:13.715121,-55,-64,-45,127,127,-30,-7,-15
15:34:13.729099,68,97,87,-128,-64,101,29,31
15:34:13.729099,5,18,-41,-12,127,122,6,3
15:34:13.759078,36,45,55,127,127,35,17,24
15:34:13.759078,-16,-94,-73,-99,119,-13,-9,-3
15:34:13.774069,16,14,89,127,127,85,19,17
15:34:13.774069,51,109,44,-96,-128,-128,-2,12
15:34:13.789060,-42,-37,-23,-1,-25,33,-7,-22
15:34:13.789060,7,5,18,60,127,16,-3,1
15:34:13.811048,-17,-32,-32,-50,-128,-69,-13,-12
15:34:13.812046,-37,-97,-61,41,-125,-20,-8,-9
15:34:13.834034,1,33,49,127,15,49,-4,-8
15:34:13.834034,-41,-112,-106,-68,-128,-28,-6,-13
15:34:13.849024,-5,-30,-5,127,127,76,5,7
15:34:13.850022,-39,-62,-43,-22,31,-36,-9,-14
15:34:13.871012,27,71,58,22,36,8,2,8
15:34:13.872009,-9,-33,-25,127,127,97,14,8
15:34:13.893996,16,38,23,3,-128,-50,-4,0
15:34:13.893996,4,-16,0,107,127,76,23,14
15:34:13.908987,5,-7,-6,69,-128,-81,1,4
15:34:13.908987,13,8,-2,-128,-128,-7,8,6
15:34:13.931971,-34,-52,-32,10,-128,-8,-16,-15
15:34:13.931971,11,24,55,127,127,37,5,3
15:34:13.953958,-101,-128,-128,-17,11,18,-29,-42
15:34:13.954957,-15,-54,-33,-64,100,4,0,-4
15:34:13.968949,19,28,77,114,127,127,14,13
15:34:13.975972,-20,-24,-17,-40,23,55,-1,-12
15:34:13.991934,-48,-115,-104,-51,-105,-43,-21,-21
15:34:13.991934,22,12,1,127,103,-3,6,12
15:34:14.013920,9,6,61,101,127,2,4,4
15:34:14.014920,-4,-2,31,99,24,27,-2,3
15:34:14.036906,-60,-109,-55,-32,127,39,-10,-23
15:34:14.036906,18,42,55,127,127,25,-2,7
15:34:14.051898,21,57,27,127,22,18,5,7
15:34:14.052898,20,48,14,-128,127,-8,-1,4
15:34:14.073883,5,12,-14,-128,-128,-125,-7,1
15:34:14.074883,-28,-48,-33,-31,-128,-20,-12,-15
15:34:14.096869,3,-2,20,96,18,31,4,2
15:34:14.096869,4,5,-3,24,-128,-50,-10,-2
15:34:14.113859,9,15,-13,-12,119,43,1,3
15:34:14.113859,1,7,-5,-128,-128,-15,0,0
15:34:14.133847,-20,-26,2,86,-42,-31,-13,-13
15:34:14.134846,9,0,3,94,102,83,10,10
15:34:14.155832,13,25,13,98,13,-37,-3,5
15:34:14.156831,4,19,3,-108,-103,2,-6,-6
15:34:14.170824,-4,-8,-35,-119,-128,-41,-1,1
15:34:14.171824,-56,-103,-72,39,127,105,-9,-22
15:34:14.194809,17,19,23,12,6,9,12,7
15:34:14.194809,7,1,-32,-128,-14,-1,6,5
15:34:14.216795,-22,-40,-9,127,127,14,-4,-7
15:34:14.216795,9,13,-20,-128,-118,-67,-4,4
15:34:14.231786,3,0,-28,-28,-17,-1,5,6
15:34:14.231786,-7,-9,0,59,54,-18,-8,-6
15:34:14.253772,-15,-35,-33,39,127,-60,-3,-4
15:34:14.254772,-1,0,-11,9,49,12,-3,-3
15:34:14.276757,2,1,-17,-102,-83,-24,-5,0
15:34:14.283755,2,4,-6,-25,-21,-4,1,2
15:34:14.291748,10,8,33,127,127,49,17,17
15:34:14.291748,-19,-29,-21,-14,-36,-14,-8,-8
15:34:14.313745,5,16,20,24,37,25,7,5
15:34:14.314734,-19,-45,-55,-31,-30,-13,-8,-7
15:34:14.336721,0,20,29,68,75,23,-2,-4
15:34:14.336721,2,-5,-25,-92,-13,-15,1,2
15:34:14.351711,18,19,2,58,23,-9,6,13
15:34:14.351711,1,10,22,-24,-124,-22,-2,-4
15:34:14.373750,-6,-4,0,-51,-23,0,-6,-7
15:34:14.374698,11,15,7,10,127,27,6,8
15:34:14.396684,23,20,49,127,110,3,13,19
15:34:14.397683,15,35,22,-75,40,23,2,1
15:34:14.411674,-5,-12,-15,8,-23,-14,-3,-2
15:34:14.412674,31,53,118,127,54,-1,13,23
15:34:14.434660,6,17,11,127,127,10,-2,6
15:34:14.434660,5,10,-10,-119,-112,-33,1,2
15:34:14.456647,4,0,-8,-27,103,12,8,3
15:34:14.456647,12,38,44,-67,-104,20,6,0
15:34:14.471638,-15,-4,-3,-62,-56,-5,-4,-7
15:34:14.479639,4,-5,-48,-128,-128,-23,-1,1
15:34:14.493625,-11,-9,-6,35,9,17,-4,-7
15:34:14.494624,11,27,40,56,80,3,-3,-3
15:34:14.516610,-5,-24,-17,75,127,54,0,0
15:34:14.516610,8,12,12,-5,-11,17,12,3
15:34:14.531601,-2,2,-1,-35,-25,-2,-1,2
15:34:14.531601,-2,-4,23,127,110,15,1,0
15:34:14.553588,4,7,1,-20,-2,5,3,4
15:34:14.554585,-1,0,-5,-14,-11,-2,-1,-2
15:34:14.576573,3,1,-1,4,-1,-4,3,0
15:34:14.576573,-6,-4,-1,2,1,-11,-10,-8
15:34:14.591563,9,5,2,1,-3,-7,17,2
15:34:14.591563,80,17,5,4,14,20,22,-12
15:34:14.614556,8,-15,-8,-3,-6,9,3,77
15:34:14.614556,46,29,16,12,14,4,30,-88
15:34:14.636535,-1,9,9,6,26,6,113,40
15:34:14.636535,-45,-19,-35,-31,-45,4,127,-128
15:34:14.651526,5,10,4,-4,0,-44,-128,127
15:34:14.651526,20,8,24,30,29,17,-50,12
15:34:14.673516,-8,19,-4,-10,-13,46,-128,27
15:34:14.674511,127,-19,-1,8,30,118,-66,127
15:34:14.696498,-71,-13,-1,15,-15,-128,-103,-43
15:34:14.697507,-16,22,36,37,51,112,57,-65
15:34:14.711488,5,3,-3,-3,-13,-6,49,8
15:34:14.712488,2,10,1,-20,-30,7,-6,-3
15:34:14.734474,-94,30,44,127,106,41,68,-35
15:34:14.734474,70,12,-19,127,80,-57,-90,82
15:34:14.756461,-90,38,36,53,108,34,-5,-42
15:34:14.756461,127,-80,-9,-128,-128,127,-94,127
15:34:14.771456,-35,97,23,127,127,22,127,-47
15:34:14.786448,-128,-84,36,-128,18,52,-5,-128
15:34:14.793440,127,50,-30,-42,107,41,67,127
15:34:14.794436,-64,12,-70,-3,-128,-41,41,-78
15:34:14.816423,3,-49,15,26,-52,48,127,-92
15:34:14.817422,11,14,-56,-105,-109,-39,-10,10
15:34:14.831413,-128,3,16,20,-128,-16,-27,-128
15:34:14.839412,29,45,-35,-50,22,-128,15,127
15:34:14.854404,7,37,18,79,-43,77,26,26
15:34:14.855400,127,-7,-22,-128,-128,49,127,127
15:34:14.876388,-14,3,-21,-128,10,-35,-21,-41
15:34:14.877388,-40,-33,4,82,-128,-39,-112,-42
15:34:14.892377,-20,-6,-22,-42,88,-9,127,-56
15:34:14.899372,32,28,-6,21,47,25,51,30
15:34:14.914363,17,-24,13,74,-128,15,-68,32
15:34:14.914363,-128,-13,-8,19,-53,-26,38,-29
15:34:14.937352,7,6,-18,-26,127,5,85,0
15:34:14.937352,-25,8,33,51,63,18,-5,-14
15:34:14.952341,-22,-21,-8,-21,127,-4,-25,-14
15:34:14.959338,9,12,-16,38,19,-1,4,15
15:34:14.974328,9,-8,16,32,-39,9,-3,-18
15:34:14.975327,-2,-4,-27,-128,-128,-22,-17,-16
15:34:15.004307,1,-15,10,88,-97,-16,0,1
15:34:15.005309,34,8,1,-32,-101,-45,-64,34
15:34:15.012303,20,12,17,-2,49,37,-1,24
15:34:15.019298,-14,-6,21,27,-128,-13,16,-11
15:34:15.034288,9,8,8,-128,-128,22,27,9
15:34:15.035288,-26,-13,-5,125,30,-2,12,-34
15:34:15.057274,31,13,4,-34,17,5,14,44
15:34:15.057274,-16,-5,3,1,30,9,-6,-20
15:34:15.072268,7,8,3,6,9,-4,2,2
15:34:15.079261,-5,1,1,-8,-5,10,14,15
15:34:15.095252,0,1,4,57,127,30,5,-1
15:34:15.095252,5,5,3,8,103,-7,-3,3
15:34:15.117237,-2,-6,3,23,38,3,-1,-7
15:34:15.117237,10,9,8,56,9,5,-4,5
15:34:15.132231,15,2,-10,-45,7,8,-6,-9
15:34:15.139226,-23,-12,5,17,-2,-59,-37,-22
15:34:15.154215,3,-6,-4,-19,5,-3,-12,-6
15:34:15.162209,8,7,1,4,9,4,6,12
15:34:15.177202,-5,3,-8,-128,-128,-22,-10,-6
15:34:15.177202,-9,-14,-12,27,-2,4,6,2
15:34:15.199189,1,4,0,-35,-25,5,3,-1
15:34:15.200187,0,-3,1,2,20,1,-31,-1
15:34:15.214179,1,5,2,7,-5,-4,3,-3
15:34:15.215178,-6,1,-8,17,9,-4,5,-12
15:34:15.237162,-7,2,-3,-11,0,0,-8,-12
15:34:15.238166,0,1,2,25,55,4,11,6
15:34:15.259152,-5,0,-1,-46,-45,-3,1,-5
15:34:15.260150,-3,-2,-3,9,17,-4,-4,-6
15:34:15.274140,-6,0,3,2,15,12,4,5
15:34:15.282135,4,4,1,-4,-7,1,5,5
15:34:15.297126,-4,-3,-1,-4,-2,-9,-8,1
15:34:15.297126,7,1,0,-4,1,8,1,4
15:34:15.319112,-2,-4,-2,-41,-43,-2,8,-5
15:34:15.320113,-5,-1,-2,8,12,-6,1,1
15:34:15.334103,1,0,-3,-2,-1,-4,-2,0
15:34:15.335102,1,-1,-4,-4,-4,-4,-1,-2
15:34:15.357088,0,0,-2,-1,1,-3,1,-1
15:34:15.358088,0,0,-2,-2,-1,-3,-2,-1
15:34:15.380075,-3,-4,1,-2,-2,-2,-1,-3
15:34:15.380075,-2,0,-2,2,-1,3,-1,-3
15:34:15.394068,-3,-2,-2,0,-3,-2,1,-2
15:34:15.395065,1,0,3,3,6,6,3,2
15:34:15.417056,-1,-2,-1,-1,-2,-2,-1,-1
15:34:15.417056,-3,1,-1,1,-4,-3,-3,-2
15:34:15.439040,2,-1,-1,2,6,7,2,4
15:34:15.440037,1,-3,0,0,-2,0,0,-2
15:34:15.454031,-3,1,-2,-2,1,1,1,-4
15:34:15.455030,4,0,-2,-1,0,-4,-1,3
15:34:15.477016,-3,-2,-2,-1,-1,-5,-1,0
15:34:15.477016,4,1,3,3,7,8,-3,-2
15:34:15.506998,0,-4,-2,-2,-6,-4,0,-2
15:34:15.508002,-1,-2,-3,-1,-3,3,0,0
15:34:15.513990,0,-3,-1,1,-1,-1,-3,2
15:34:15.528981,-3,-1,-4,-1,0,-2,-1,-3
15:34:15.536981,-3,-1,-3,-3,1,-3,-5,-1
15:34:15.536981,-4,-4,-3,-1,-3,-1,-5,-2
15:34:15.558963,-2,-3,-4,-5,-9,-6,-3,1
15:34:15.559962,-3,-2,-4,-4,3,5,-3,-5
15:34:15.574953,-3,-1,2,0,-1,0,-2,-4
15:34:15.581951,1,1,0,-2,-4,-4,-3,0
15:34:15.596942,3,4,4,4,0,1,-3,-1
15:34:15.596942,2,1,1,5,4,3,-2,1
15:34:15.618928,1,-3,-2,-2,-1,-1,2,-1
15:34:15.619928,-1,-2,-3,0,-3,-1,-3,-3
15:34:15.634916,1,1,-2,0,3,1,3,0
15:34:15.641914,-3,2,-1,0,-6,-3,-2,-4
15:34:15.656902,2,-3,0,-3,-1,1,-2,-2
15:34:15.657903,-1,-2,0,0,5,3,3,-1
15:34:15.679888,-1,-1,-5,-2,0,-4,-1,-3
15:34:15.679888,0,2,-1,3,-2,-2,-6,1
15:34:15.701878,1,-1,-2,1,3,5,2,2
15:34:15.702877,-2,-2,-1,0,-3,0,3,-2
15:34:15.716865,-3,0,0,1,-1,-4,-4,-10
15:34:15.717867,-1,-1,-1,0,0,-3,-3,0
15:34:15.739853,1,0,-1,2,4,5,1,1
15:34:15.739853,-1,-5,-1,-1,4,1,1,-4
15:34:15.754842,5,3,3,7,10,4,3,4
15:34:15.761839,-4,-4,-5,-1,-4,-3,0,0
15:34:15.776831,2,1,-2,-1,-7,1,0,4
15:34:15.777827,1,-2,-1,0,-2,-1,-1,-3
15:34:15.798816,0,0,-2,1,-4,-5,-1,-3
15:34:15.799816,0,-2,-2,-3,0,0,-4,-1
15:34:15.814805,-1,-4,-1,-4,-2,-1,-1,-2
15:34:15.821803,2,2,2,3,1,1,2,3
15:34:15.836793,-5,1,-4,-3,-7,-3,-6,-3
15:34:15.837790,-1,-1,0,0,-1,-2,-3,0
15:34:15.859777,2,-1,-1,-1,2,-3,12,1
15:34:15.859777,0,0,0,1,1,-2,-5,-1
15:34:15.874770,-1,-4,-2,-4,-4,-6,0,0
15:34:15.881763,-5,-2,-1,-1,1,-2,-3,-7
15:34:15.896756,-2,-1,0,1,-3,-1,-1,-1
15:34:15.896756,1,1,-1,1,-3,-3,-2,-3
15:34:15.919742,-2,-5,-1,-4,-2,-1,-2,1
15:34:15.919742,-3,-2,-4,-4,1,2,-4,-1
15:34:15.934735,0,0,-2,-3,0,3,3,1
15:34:15.941725,0,-2,1,3,2,-1,1,0
15:34:15.956716,-1,-1,-5,-2,1,-4,-11,-3
15:34:15.957716,0,2,-2,-1,2,4,4,3
15:34:15.979702,0,-1,-1,0,1,-2,0,-1
15:34:15.979702,-1,2,1,-1,-3,2,-2,-3
15:34:15.994697,-6,-3,-2,-4,-3,-3,-3,-5
15:34:16.001691,1,-4,-2,-1,-2,0,-3,0
15:34:16.016681,-4,-4,-3,0,-3,1,1,-3
15:34:16.017680,-1,3,0,-4,0,-1,-5,-1
15:34:16.046663,-2,-2,0,-1,-3,-2,1,-1
15:34:16.047662,0,-2,-1,-1,-2,-1,-3,-1
15:34:16.054658,-2,-2,-1,0,0,-1,-1,1
15:34:16.061652,-1,1,-3,-2,-1,0,-1,-2
15:34:16.076642,-1,-3,-4,-2,-5,-7,-16,-5
15:34:16.077644,6,5,6,7,7,3,4,2
15:34:16.099627,-3,-4,0,-1,-1,-1,2,-1
15:34:16.099627,0,0,-2,1,-1,-6,-1,-1
15:34:16.114619,-3,-1,-2,-4,-4,-3,4,2
15:34:16.121614,-4,-4,-2,0,-1,1,-2,-2
15:34:16.136605,0,-1,0,-2,-5,-5,-3,-1
15:34:16.137606,-7,-3,-3,-4,-5,-4,-2,-4
15:34:16.159591,0,0,-4,0,-2,1,-2,1
15:34:16.159591,-4,1,0,-2,-7,-3,-3,0
15:34:16.181579,-1,-3,-2,2,-4,0,-4,-1
15:34:16.182579,1,1,-2,-2,2,3,4,2
15:34:16.196567,0,2,0,-2,0,4,8,-1
15:34:16.197569,0,-3,-1,1,3,-2,-1,-1
15:34:16.219555,3,2,2,2,7,3,3,1
15:34:16.226550,-2,0,-3,-2,-3,-2,-2,-4
15:34:16.241539,-3,-1,-1,-3,-5,-3,2,1
15:34:16.242539,2,0,-2,1,-3,2,-1,-1
15:34:16.256533,-2,-1,0,-3,0,0,-2,0
15:34:16.257532,-2,-2,1,-3,-2,-1,-2,-2
15:34:16.279516,-2,0,-2,1,-7,-6,-4,-4
15:34:16.279516,1,3,2,3,4,-3,7,6
15:34:16.301507,-5,0,2,-2,0,0,-2,-2
15:34:16.302506,-3,-1,0,0,-3,-4,-1,-4
15:34:16.316492,2,-2,1,2,5,4,5,1
15:34:16.317492,-2,1,0,0,0,-2,-1,0
15:34:16.339482,0,1,1,3,3,-1,7,3
15:34:16.346475,-2,-2,-2,-1,-4,-5,-14,2
15:34:16.361467,0,-1,0,-2,0,2,2,0
15:34:16.362465,-2,2,-1,-3,0,-1,1,1
15:34:16.376459,1,0,-4,-3,-5,-3,0,-2
15:34:16.377456,0,0,-2,1,-1,-3,1,-1
15:34:16.399444,1,0,-2,-2,-2,-5,-5,-1
15:34:16.399444,0,-3,-2,-1,-2,-3,-1,0
15:34:16.421429,-1,-1,-3,0,-4,-2,-2,1
15:34:16.422430,-1,1,-2,-1,-3,-3,-2,-2
15:34:16.436420,-2,0,-1,0,-3,0,-1,0
15:34:16.444416,1,-1,0,-1,3,1,2,1
15:34:16.459407,-1,-3,-1,-3,-2,-1,-6,-2
15:34:16.460406,-3,-1,-2,-2,-2,-3,0,-4
15:34:16.481392,0,0,1,0,3,1,2,-4
15:34:16.482391,-4,-1,0,2,-3,1,2,0
15:34:16.497386,-4,-1,-1,-1,0,-5,-3,0
15:34:16.504379,-1,0,1,-4,-1,-1,-4,-3
15:34:16.519370,0,2,2,1,-2,-2,-4,2
15:34:16.520369,-1,0,-1,-1,-2,0,0,-5
15:34:16.549351,4,1,2,-1,3,-3,0,1
15:34:16.550350,0,-2,-2,-3,0,-4,-2,1
15:34:16.556347,3,-2,-2,2,-1,1,1,0
15:34:16.564339,4,0,3,5,4,6,3,7
15:34:16.580330,-4,-3,0,-2,-3,2,2,-5
15:34:16.580330,-1,0,0,-2,-3,-2,0,0
15:34:16.601318,1,-3,0,2,0,1,0,0
15:34:16.602316,0,-1,2,1,4,2,0,-3
15:34:16.617309,0,-1,-1,-3,-6,-2,0,-2
15:34:16.624302,0,-1,0,-3,1,-3,1,-1
15:34:16.646291,2,-1,0,3,-2,4,2,-1
15:34:16.647288,3,-3,-2,0,0,-1,-3,-2
15:34:16.661281,0,-1,-3,0,-3,0,0,1
15:34:16.662278,-1,-3,0,-1,1,-4,1,-2
15:34:16.677272,-2,-3,-1,0,-2,1,-6,-3
15:34:16.684267,2,-1,3,2,0,-7,0,5
15:34:16.699255,0,-1,2,2,7,2,1,6
15:34:16.700258,-1,-1,-2,0,-2,0,-1,-5
15:34:16.729239,0,0,-1,-1,-8,-1,-5,-3
15:34:16.730239,-1,-1,-1,-3,-1,4,7,-3
15:34:16.737232,0,-2,-2,-4,-4,-4,-1,-2
15:34:16.744230,-2,0,-2,-2,-2,1,-2,-3
15:34:16.759221,1,1,4,3,3,0,4,3
15:34:16.760221,0,0,-4,1,-3,1,-1,1
15:34:16.782207,-3,-2,1,1,0,-2,1,-1
15:34:16.782207,0,2,-2,-2,-3,-2,-1,0
15:34:16.797197,-2,0,0,-2,0,-1,-3,0
15:34:16.804194,0,-1,-2,-1,-5,-5,1,-2
15:34:16.819184,2,1,-2,3,-3,-4,-4,-2
15:34:16.820182,1,-1,-4,1,-5,-1,-2,-2
15:34:16.842167,-1,-1,2,1,0,-12,-17,-3
15:34:16.842167,0,3,-1,-3,-4,0,3,1
15:34:16.857160,2,3,2,1,8,0,1,1
15:34:16.864153,-1,-2,0,-4,-6,-1,-2,-1
15:34:16.879144,4,0,0,0,-3,-3,0,-1
15:34:16.880146,-2,-1,-3,-3,0,0,-1,1
15:34:16.902131,0,0,1,1,-2,-4,1,0
15:34:16.902131,-3,-1,-1,-1,-1,-2,-3,-4
15:34:16.917121,2,-4,-2,3,1,0,-1,0
15:34:16.924119,-2,-1,-1,2,-2,-1,-2,-2
15:34:16.939107,-2,-5,-2,0,-3,1,-2,-2
15:34:16.940109,2,2,1,-1,-1,3,1,1
15:34:16.962094,0,-1,1,0,-3,-7,-15,-3
15:34:16.962094,0,-2,-1,-1,-1,-1,1,-6
15:34:16.977084,4,3,2,4,5,-2,4,5
15:34:16.984079,-2,-1,0,-2,1,0,0,1
15:34:16.999070,3,2,-1,1,-5,-5,-2,-1
15:34:17.000071,0,0,3,-1,-1,-8,-4,-1
15:34:17.022056,2,0,-1,-3,0,-2,-2,0
15:34:17.022056,-3,3,-1,1,0,2,-1,0
15:34:17.037049,0,-3,0,0,-2,-5,-3,2
15:34:17.045044,0,0,3,-1,-2,0,1,0
15:34:17.067028,-1,0,-2,-3,-3,0,-2,2
15:34:17.067028,-1,-4,-2,-2,1,2,-7,2
15:34:17.082018,0,1,1,-1,2,3,2,0
15:34:17.082018,0,-1,-2,-1,-3,-2,-2,-5
15:34:17.104005,-2,-1,2,0,-4,-4,-2,-3
15:34:17.105007,-1,-2,-1,-4,-1,0,-2,1
15:34:17.118995,0,-1,0,1,-1,0,-1,-1
15:34:17.119997,1,1,0,-1,-4,1,-3,2
15:34:17.141984,-2,-3,-1,-1,-3,1,-5,2
15:34:17.141984,-2,2,-4,-4,-1,0,-2,-1
15:34:17.163969,-1,1,-2,1,1,-1,-3,-3
15:34:17.164970,-4,0,1,4,0,-1,-2,-3
15:34:17.178961,-1,-4,0,0,2,0,0,-1
15:34:17.179958,-2,-1,-2,-1,0,2,0,0
15:34:17.201947,0,-1,-1,-2,1,3,0,-1
15:34:17.201947,-2,-2,0,-2,-3,-4,-4,-2
15:34:17.223933,-1,1,3,2,3,8,6,8
15:34:17.224932,-6,-2,-3,-1,-4,1,0,1
15:34:17.238923,-2,-3,-2,0,2,-3,0,-1
15:34:17.239920,1,-1,1,3,4,0,1,3
15:34:17.261910,-1,-3,-3,-3,-2,-1,0,0
15:34:17.262909,-2,1,1,1,0,-1,-2,1
15:34:17.283896,0,-1,1,-1,-1,1,-2,0
15:34:17.284895,-2,2,0,-1,-2,-1,-3,-4
15:34:17.298885,-1,1,1,0,-1,-4,-1,-1
15:34:17.299886,-1,-7,-3,0,-3,1,-3,-2
15:34:17.321873,2,-2,-1,0,2,2,-1,1
15:34:17.321873,-1,0,-3,1,0,-2,-2,1
15:34:17.343858,-4,2,-4,-1,3,1,-5,-1
15:34:17.344856,1,-1,0,-2,1,2,2,-4
15:34:17.366842,-4,-2,-1,-1,0,1,3,1
15:34:17.367845,-3,-2,-2,0,2,1,-1,-3
15:34:17.381832,0,0,0,-1,0,1,0,1
15:34:17.381832,-1,-1,2,-1,2,-2,2,-2
15:34:17.404820,2,-5,0,-2,-2,-3,-2,-2
15:34:17.404820,2,1,1,0,0,2,4,3
15:34:17.419811,0,1,-1,-3,-3,2,-2,0
15:34:17.426807,-4,-3,-1,-1,0,2,-2,1
15:34:17.448791,1,1,3,0,3,2,0,1
15:34:17.449791,1,-2,0,-2,-2,2,11,0
15:34:17.463784,-2,-2,0,-3,-4,1,-2,-1
15:34:17.464782,0,-2,1,-2,0,1,2,2
15:34:17.479780,-1,0,1,-3,-2,5,3,4
15:34:17.486770,1,0,-4,1,2,4,1,-1
15:34:17.501761,-5,-1,0,1,-2,-2,-2,1
15:34:17.502760,-2,-2,-1,-4,-2,0,4,0
15:34:17.524745,2,0,1,1,1,0,0,-3
15:34:17.524745,3,-1,0,-1,1,1,0,-3
15:34:17.539735,-1,0,-3,-2,0,-2,-3,-1
15:34:17.546732,-4,-4,-2,-2,-5,0,7,-6
15:34:17.561723,-1,0,-1,-4,-2,0,0,-2
15:34:17.562720,-1,1,-1,-1,0,-3,2,3
15:34:17.584709,-2,1,-3,-1,-1,-4,0,3
15:34:17.584709,-4,-3,-1,0,-6,-2,-3,-5
15:34:17.599701,-1,2,-2,-2,-3,-2,-3,-1
15:34:17.606696,0,-2,-3,-3,-4,-1,-1,-3
15:34:17.621686,-3,-2,-2,-4,-9,-4,-2,-3
15:34:17.622686,-2,-2,0,-1,1,-2,-2,-1
15:34:17.644670,-1,0,-1,-4,-2,-1,0,-1
15:34:17.644670,-2,0,-3,-1,-1,-4,0,-1
15:34:17.659663,-3,-2,-2,0,1,-1,1,0
15:34:17.666655,-2,-4,-1,-4,-2,-1,-2,-2
15:34:17.681646,1,0,-1,3,3,0,-14,0
15:34:17.682646,-3,-3,-2,-4,-5,-1,-3,-5
15:34:17.704632,-2,0,-4,-1,0,-1,-1,0
15:34:17.704632,0,0,-1,4,3,-4,-3,3
15:34:17.719625,2,-2,-1,-1,-4,0,2,-2
15:34:17.726621,-1,-4,-5,-4,-1,0,-2,-2
15:34:17.741612,-1,-2,1,-1,1,0,2,-2
15:34:17.742610,0,-4,-1,-1,-3,-1,0,-1
15:34:17.764595,0,-2,-4,-2,0,-6,1,0
15:34:17.764595,-3,-2,1,-2,-3,-3,-1,-3
15:34:17.779586,-1,0,-3,-2,-4,0,-1,-3
15:34:17.786584,0,-2,-2,-4,-6,-1,-1,2
15:34:17.801575,-3,1,2,-1,-5,-4,-1,-2
15:34:17.802573,-2,2,0,-2,0,3,-4,1
15:34:17.824559,-4,0,-2,-2,0,0,-1,-2
15:34:17.824559,-2,-3,1,-1,0,-1,-1,-5
15:34:17.839550,-3,1,0,-2,0,3,2,1
15:34:17.874527,-1,0,-1,-2,0,-1,1,2
15:34:17.875526,0,-1,1,-5,-1,0,0,-2
15:34:17.875526,0,-2,-5,-1,-5,0,-1,-1
15:34:17.891516,1,-2,-2,-1,-1,-1,-2,0
15:34:17.893514,-4,0,-3,-3,-3,-3,-3,-2
15:34:17.902509,2,2,1,3,0,1,0,2
15:34:17.907505,-4,-1,0,0,-3,-2,0,-1
15:34:17.922497,-1,-1,-1,1,-4,-3,-3,-4
15:34:17.922497,2,-1,-2,0,-4,0,-3,-3
15:34:17.943484,0,-1,-2,-4,-3,2,0,0
15:34:17.944483,-1,-1,1,0,2,4,-3,-1
15:34:17.959473,-3,-1,-1,-3,0,-3,0,0
15:34:17.966468,0,1,2,1,1,-3,-5,-3
15:34:17.981461,-3,-4,-3,0,2,1,1,0
15:34:17.982459,-1,0,-1,1,-1,-2,-4,-1
15:34:18.003449,1,-1,0,-3,-1,1,-1,-3
15:34:18.004447,0,1,-1,-4,-5,-1,0,-2
15:34:18.026432,0,0,2,1,-3,-4,0,0
15:34:18.027432,-2,-3,-2,-2,-1,1,0,-4
15:34:18.041422,-1,-2,-2,-3,0,1,1,-3
15:34:18.042422,-4,-2,0,0,-3,-1,-1,0
15:34:18.064410,-4,0,-4,-1,1,-2,-3,-4
15:34:18.064410,0,-2,1,-3,0,-1,0,-4
15:34:18.086394,-3,-3,0,-1,-4,-1,-1,-3
15:34:18.087396,1,0,1,4,-1,-4,-1,-1
15:34:18.101386,-3,-4,-2,-3,0,-2,-4,-3
15:34:18.101386,1,-2,-2,-4,0,-1,-3,1
15:34:18.124371,-2,-3,0,-2,-3,0,0,0
15:34:18.124371,1,1,3,0,3,2,1,2
15:34:18.146357,-5,-1,-3,-4,0,-1,-5,-4
15:34:18.147388,0,-3,-1,-2,1,-1,-1,2
15:34:18.161349,-2,1,-1,-2,-4,-1,-3,-5
15:34:18.169346,-3,-4,3,1,-1,-4,0,-2
15:34:18.184334,1,2,4,2,5,-2,-11,3
15:34:18.185336,-2,-3,0,1,-2,-2,1,-3
15:34:18.206322,-1,-1,-2,-1,0,1,1,-3
15:34:18.207320,-2,-3,1,-4,-1,-2,-1,-1
15:34:18.221313,1,-1,-1,-1,1,2,4,2
15:34:18.222311,1,2,3,0,-3,-3,-3,1
15:34:18.244297,-1,-2,-1,0,0,-7,-2,2
15:34:18.245297,0,3,0,2,4,-1,-2,2
15:34:18.266285,0,1,-2,-1,-7,-3,-5,-4
15:34:18.267283,-2,0,2,3,-1,3,-1,-1
15:34:18.281275,1,-1,0,-3,-1,0,1,-5
15:34:18.282275,-2,0,2,1,2,3,-4,-2
15:34:18.304263,1,1,3,3,4,-3,-1,3
15:34:18.304263,0,1,-3,0,-3,-1,-2,0
15:34:18.327246,0,-2,-3,-3,-3,-3,-1,0
15:34:18.327246,3,1,-1,-4,-4,-1,-3,-1
15:34:18.342237,2,1,-1,-1,-2,-4,1,0
15:34:18.342237,-3,1,-1,0,-4,-1,0,-5
15:34:18.364223,4,4,2,6,6,-1,2,3
15:34:18.365223,1,-3,-5,-4,1,3,0,-2
15:34:18.394204,-1,-3,-1,1,0,-3,-1,3
15:34:18.395205,0,0,-7,0,-1,-5,2,1
15:34:18.441175,-1,0,2,-1,4,6,2,2
15:34:18.441175,-3,-6,-6,-4,0,-3,-1,-5
15:34:18.442176,-3,-1,-4,0,-2,2,-2,1
15:34:18.442176,0,2,-1,-3,-4,-2,-3,0
15:34:18.462162,-3,-4,-3,-2,-1,-4,-2,-7
15:34:18.471156,-1,1,1,2,-3,0,-1,0
15:34:18.471156,0,-1,0,0,-1,-2,-2,-1
15:34:18.471156,0,3,1,3,4,5,0,4
15:34:18.486149,2,0,1,1,2,2,2,2
15:34:18.486149,-2,-3,-4,-1,-2,0,-3,-2
15:34:18.506134,1,4,4,1,3,-2,-1,2
15:34:18.507136,-1,0,-3,-2,-2,1,-2,0
15:34:18.521218,-2,-1,0,2,0,-4,-1,-1
15:34:18.522124,-4,0,-3,-3,-6,0,-6,-1
15:34:18.544111,-3,-2,0,2,2,5,2,-1
15:34:18.544111,2,-1,-3,-1,-3,-1,0,-1
15:34:18.566100,-1,-3,0,1,1,-1,-2,2
15:34:18.567097,0,-1,0,-1,-1,1,0,-2
15:34:18.581096,2,-3,0,0,-4,-4,0,0
15:34:18.582087,-1,-3,-2,0,-1,-1,0,-1
15:34:18.604075,0,-2,0,0,0,1,-2,-3
15:34:18.604075,-1,-5,0,-2,0,1,-1,2
15:34:18.626102,-4,-4,-3,-3,-5,-3,-1,-3
15:34:18.627064,0,-2,1,3,2,0,0,1
15:34:18.641053,0,-1,-1,-2,-3,0,-3,2
15:34:18.642050,0,1,-1,0,-5,-4,-2,-1
15:34:18.672031,-2,-3,0,-1,0,-1,-2,-2
15:34:18.672031,1,-2,-3,-2,-1,1,0,-2
15:34:18.687022,-3,-4,-1,-3,-3,1,-2,-2
15:34:18.687022,-1,-3,0,0,-1,-1,-2,-1
15:34:18.702014,-4,-1,-6,-5,-9,-5,0,-4
15:34:18.709015,-3,-4,-3,1,0,-3,-2,-4
15:34:18.723999,-2,1,-2,-1,-5,-3,0,-1
15:34:18.723999,0,-2,-5,-4,-1,0,-1,0
15:34:18.746987,-2,-2,0,-3,-5,-3,1,2
15:34:18.746987,3,1,1,4,3,-5,2,3
15:34:18.768972,-1,0,1,1,-2,0,-2,-1
15:34:18.768972,-4,3,-3,-2,-3,-2,-3,-1
15:34:18.783965,0,-3,-1,1,0,-4,-3,-1
15:34:18.783965,-3,-1,1,1,-1,-1,1,-2
15:34:18.805951,1,-1,1,1,3,0,1,0
15:34:18.806949,-2,-1,-4,-4,-3,1,-4,-4
15:34:18.828934,0,2,-1,2,5,8,1,3
15:34:18.829935,-1,1,-1,1,1,-3,-2,-1
15:34:18.843925,-2,-4,0,-1,-2,-3,-2,-2
15:34:18.843925,0,0,0,-2,-2,-3,0,0
15:34:18.866911,0,-3,1,-1,-4,1,0,-1
15:34:18.866911,2,0,-1,2,4,-5,0,0
15:34:18.888897,-1,0,-1,-2,0,1,-1,-3
15:34:18.889897,1,-1,0,1,-4,-2,0,-3
15:34:18.903893,-3,1,0,-2,0,0,-2,-2
15:34:18.904889,0,-1,-3,2,1,0,0,0
15:34:18.926874,-5,-4,-5,-1,-3,-2,0,-5
15:34:18.926874,-2,-2,1,-1,-3,-2,-2,0
15:34:18.948859,1,1,1,0,0,-1,0,0
15:34:18.949859,-2,2,-3,-2,-1,0,0,-1
15:34:18.963851,0,0,-1,0,-2,-2,-1,1
15:34:18.964852,-1,1,-2,-1,-2,0,-4,-3
15:34:18.986836,-3,-3,-2,-4,0,0,-1,0
15:34:18.986836,-4,-1,-1,-2,-2,-1,-4,-1
15:34:19.008823,0,2,0,-3,-1,7,1,0
15:34:19.009823,0,-2,-3,-3,-4,-4,-1,-1
15:34:19.023822,1,2,-3,0,-1,-1,0,1
15:34:19.024814,-1,0,-1,2,-1,0,0,0
15:34:19.046799,-3,-2,-2,-1,1,0,1,-1
15:34:19.046799,0,0,1,-2,-1,1,0,0
15:34:19.068835,0,-1,-2,-3,-1,-3,-2,-2
15:34:19.069785,-1,-1,-1,-4,-4,-2,-2,2
15:34:19.083776,2,1,-1,-2,1,0,-2,-4
15:34:19.084777,-2,0,-1,0,-2,-2,-2,1
15:34:19.106762,-2,1,-2,-2,-2,0,0,-1
15:34:19.106762,2,1,2,0,2,2,1,0
15:34:19.129751,0,-3,-2,-2,-2,-2,-1,-1
15:34:19.129751,-2,-2,-2,-4,-5,-5,-5,-5
15:34:19.143743,1,-4,0,0,-1,-1,-5,-3
15:34:19.144740,-1,-2,2,-5,0,-2,-3,-1
15:34:19.166728,-4,-5,-4,-2,-7,-3,-1,-3
15:34:19.167727,-3,-3,-1,0,-2,-6,-4,-3
15:34:19.196709,-3,-2,0,-2,-1,-1,-3,-3
15:34:19.197708,-1,2,-1,3,5,1,0,1
15:34:19.205702,-2,-2,1,2,-2,-4,-3,-1
15:34:19.205702,-3,-1,-3,-1,-1,-2,-2,-3
15:34:19.226691,-5,-3,-1,-3,-4,-7,0,-2
15:34:19.227691,-2,-1,0,-3,0,1,-1,-3
15:34:19.249674,-1,0,-2,-2,-5,-2,-1,-1
15:34:19.249674,0,0,0,0,4,5,0,1
15:34:19.264664,-4,-1,0,-2,-4,-4,-3,-3
15:34:19.264664,-2,-2,-1,-1,-1,0,1,-1
15:34:19.286652,-1,-3,-3,-3,-2,2,-3,-2
15:34:19.286652,-1,-2,0,-2,-1,-1,1,-2
15:34:19.308659,-3,-1,1,-2,-5,-3,-4,-3
15:34:19.309636,1,1,1,-1,-1,-2,-1,-6
15:34:19.323653,1,-2,-5,0,-4,-5,1,-2
15:34:19.324626,3,-1,-2,-1,-2,-1,-1,0
15:34:19.346614,-1,-2,-1,0,-7,0,-2,-2
15:34:19.347613,-3,-1,-1,-1,-4,0,0,-2
15:34:19.376596,-2,0,1,-1,0,3,1,-1
15:34:19.376596,3,-1,0,3,-1,0,2,0
15:34:19.391585,-1,-2,-1,-3,-5,-4,-2,-1
15:34:19.391585,0,-2,-1,0,3,-1,-1,-3
15:34:19.406577,-1,-1,-1,1,-4,0,-5,-1
15:34:19.406577,0,-2,0,-2,1,2,1,2
15:34:19.428564,-1,-1,-1,-1,-3,2,0,1
15:34:19.429562,-6,-5,-5,-8,-6,1,-2,-9
15:34:19.443557,0,-3,2,4,2,-3,0,3
15:34:19.444553,5,-1,-2,3,-3,-7,-2,2
15:34:19.466540,0,-6,-3,0,-3,-1,-2,-4
15:34:19.466540,-1,-1,-3,0,-3,2,-2,-1
15:34:19.488535,-3,0,-1,1,2,7,-1,1
15:34:19.489525,2,1,2,1,4,-2,-1,1
15:34:19.503532,0,-3,-1,-2,-1,-2,-3,-1
15:34:19.504516,0,2,2,-1,-2,0,2,-1
15:34:19.526502,0,1,-1,-5,1,4,0,1
15:34:19.526502,0,-1,3,3,2,5,5,0
15:34:19.549489,-2,-1,-1,-3,0,0,-1,1
15:34:19.549489,-2,-2,-4,-9,-8,-6,-3,-3
15:34:19.564478,-1,0,-1,0,-3,-1,1,-1
15:34:19.564478,-4,0,-2,-3,-2,-2,-1,-3
15:34:19.586466,0,-2,0,0,4,4,-2,2
15:34:19.586466,3,-4,-1,0,-1,2,-3,0
15:34:19.609451,-1,-1,0,0,-2,-3,-2,-1
15:34:19.609451,-1,0,-2,2,3,2,-2,-1
15:34:19.624450,-3,-7,-3,-3,-4,-1,-2,-3
15:34:19.624450,0,-1,0,-1,3,2,3,3
15:34:19.646429,-4,-1,-1,-3,-3,-1,0,-1
15:34:19.647438,0,-1,0,1,3,3,1,0
15:34:19.669414,-1,2,-3,-2,-2,-4,-1,1
15:34:19.669414,-1,1,0,0,-4,-1,0,-3
15:34:19.684403,0,-4,-1,-4,1,0,-1,2
15:34:19.691430,-1,0,-1,-2,-3,1,-3,-1
15:34:19.706395,-1,1,2,1,1,0,1,0
15:34:19.707390,-3,0,-2,-3,1,0,-2,1
15:34:19.729379,0,2,-1,-3,-1,-4,-1,-3
15:34:19.730379,1,0,2,-1,0,-1,0,0
15:34:19.751363,-1,-6,-4,-3,-2,-5,-3,0
15:34:19.752362,-3,-2,-1,1,3,-1,-2,-3
15:34:19.767356,-1,-1,-1,-1,-5,-4,1,1
15:34:19.767356,0,0,-4,1,1,-3,0,0
15:34:19.789339,1,-1,-1,0,-4,-1,0,0
15:34:19.790342,-1,0,1,2,4,5,-1,0
15:34:19.811328,-2,-4,-6,-1,-5,-1,-1,-5
15:34:19.812326,-5,-2,-1,-5,-1,-1,-2,1
15:34:19.826318,-3,-4,-1,-4,-3,-1,-4,-2
15:34:19.827318,-3,0,-5,0,1,1,0,0
15:34:19.849304,-3,-1,0,0,-4,-1,0,-2
15:34:19.850304,1,-4,-4,-1,-1,1,-1,-2
15:34:19.872288,1,0,2,4,3,5,2,0
15:34:19.873289,-1,0,0,-3,2,3,0,-2
15:34:19.886282,-1,-3,0,-3,-5,-3,-2,-3
15:34:19.887279,0,-2,1,-1,2,-2,-4,-3
15:34:19.909265,2,-2,-1,-2,2,-1,0,3
15:34:19.910267,-1,1,-1,0,-1,-1,-1,-2
15:34:19.931252,-2,-2,0,1,-2,1,0,-3
15:34:19.932251,-1,0,1,0,-4,-1,-2,-1
15:34:19.954237,-1,-4,-3,-3,-4,-1,-3,-2
15:34:19.955239,-2,-1,-1,1,-1,1,1,1
15:34:19.969228,-2,-1,-2,2,-4,-1,1,0
15:34:19.970230,0,-3,-1,-1,-2,-3,-4,-3
15:34:19.992215,0,1,1,2,0,-1,1,2
15:34:19.992215,0,-2,-1,-1,-2,1,0,-1
15:34:20.007206,-3,-2,0,-8,-1,-1,-1,0
15:34:20.007206,-2,-1,-2,1,-4,0,-2,-1
15:34:20.029190,-1,1,2,-1,1,1,-1,-1
15:34:20.030190,-1,-1,1,-2,0,3,1,-1
15:34:20.052176,-1,1,0,2,7,6,1,5
15:34:20.052176,-1,-1,0,2,1,-3,-1,-1
15:34:20.067170,-1,-1,-1,0,-2,0,0,-4
15:34:20.067170,0,1,-2,-1,-1,-3,-4,-1
15:34:20.089153,-4,2,-2,-1,-3,0,-2,1
15:34:20.090156,1,-2,-1,-2,-4,-2,0,2
15:34:20.112139,-3,-2,-2,2,-3,0,-1,-1
15:34:20.112139,2,4,1,1,1,1,0,2
15:34:20.127130,2,-1,-3,-2,-5,-2,-1,0
15:34:20.127130,-1,-3,-2,-1,0,3,-1,1
15:34:20.149118,-1,0,-1,1,-1,-2,-1,0
15:34:20.150118,-2,-5,-4,-1,-5,-2,0,0
15:34:20.172101,0,0,1,4,0,1,-1,4
15:34:20.172101,-1,0,1,-1,-3,-1,1,-2
15:34:20.187093,-3,0,-1,1,-4,-1,1,2
15:34:20.194088,2,0,0,1,-1,-1,-2,-3
15:34:20.209082,1,4,1,4,3,-6,0,0
15:34:20.210079,-3,-1,0,-1,-1,-3,-1,-4
15:34:20.232065,3,-3,-3,-4,0,-1,1,-2
15:34:20.232065,-4,0,1,-1,-1,-1,-2,-4
15:34:20.247056,-2,-2,0,-4,0,-1,1,-1
15:34:20.254054,1,1,2,1,4,4,1,-1
15:34:20.269043,2,-3,-3,-1,0,-3,-4,1
15:34:20.270044,-1,-3,-3,-5,-2,-1,0,-2
15:34:20.292030,-1,-4,0,-1,-3,-3,-3,-3
15:34:20.292030,-1,0,-1,1,7,1,4,1
15:34:20.307021,-2,-5,-4,-2,0,-2,0,-3
15:34:20.314014,2,-1,-1,1,2,-1,-5,3
15:34:20.337000,0,-2,0,1,-2,-1,-2,1
15:34:20.338002,-2,-3,-3,-4,-5,-3,1,2
15:34:20.351990,-5,-1,1,-3,-1,2,1,0
15:34:20.351990,-2,-2,-1,0,1,0,-2,-1
15:34:20.366984,1,0,2,1,5,0,0,0
15:34:20.373978,-4,-1,-4,-2,2,2,-2,2
15:34:20.388967,1,2,-3,-3,-1,-2,1,-4
15:34:20.389967,-3,-3,-3,1,-4,-2,-4,-1
15:34:20.418949,0,1,0,1,3,4,0,0
15:34:20.419951,-4,-4,-1,-4,-2,-5,-1,-2
15:34:20.426946,-4,0,-3,-4,-1,-5,-4,0
15:34:20.434942,0,-2,-2,-2,-3,1,-2,-2
15:34:20.449934,1,2,-1,0,2,2,1,-1
15:34:20.449934,0,0,2,0,-1,0,1,2
15:34:20.471916,-3,-3,-1,-2,-4,0,-1,-5
15:34:20.471916,-1,0,-2,-2,-1,-3,0,-1
15:34:20.486907,-2,-4,-3,-1,-3,-1,0,1
15:34:20.493902,2,2,0,1,-1,1,-2,2
15:34:20.509898,1,-1,0,-3,1,2,-2,1
15:34:20.509898,-6,-3,-1,-2,-3,0,-1,-1
15:34:20.531882,-2,-1,2,0,2,1,-1,-3
15:34:20.532878,-4,-1,-3,-6,-7,-2,-1,-2
15:34:20.546872,-2,-3,-1,-1,1,-3,-1,2
15:34:20.554865,0,-1,-1,0,0,0,-1,1
15:34:20.569857,-4,-3,-2,-2,-2,-3,-1,-1
15:34:20.569857,1,-2,0,1,0,-1,-1,1
15:34:20.591841,-4,-1,-1,-1,-4,-3,-2,-2
15:34:20.592844,0,-2,0,-3,0,-2,1,-1
15:34:20.621823,3,1,-1,1,0,-5,0,-2
15:34:20.622824,-3,0,0,0,0,-2,0,-4
15:34:20.629821,-4,-7,-6,-7,-4,-1,-1,-5
15:34:20.629821,-1,-1,1,1,1,-1,-2,0
15:34:20.651804,-3,-1,-3,-1,-2,-3,2,-3
15:34:20.652807,2,2,0,3,1,2,-1,1
15:34:20.666798,0,3,-2,-1,-2,-3,0,-1
15:34:20.674793,-3,-2,-3,-4,-1,-1,-3,-2
15:34:20.689781,0,-1,1,0,1,0,0,-2
15:34:20.689781,1,-2,-1,0,0,-4,0,3
15:34:20.711767,-1,-3,-1,-3,-1,-2,0,-2
15:34:20.712766,-1,0,0,-2,1,2,-3,-1
15:34:20.726760,1,0,-4,-1,2,-1,-3,2
15:34:20.734755,-2,2,-1,-5,-2,-4,0,-3
15:34:20.749746,1,-2,-5,-3,0,-3,-3,2
15:34:20.749746,0,-3,-3,-4,-4,-2,-2,-4
15:34:20.771733,0,-1,-3,1,0,-4,1,0
15:34:20.772730,-1,-4,2,-3,-5,-2,-4,-3
15:34:20.794716,-4,-1,-1,-1,0,-1,-2,-2
15:34:20.794716,3,-4,-1,-2,-3,-4,-2,-1
15:34:20.809707,-3,-1,-4,-2,2,-1,-2,-2
15:34:20.809707,-3,-1,-1,2,-2,1,0,-3
15:34:20.831696,2,1,1,0,-1,-3,0,1
15:34:20.832694,0,0,1,0,1,-1,-3,-2
15:34:20.846686,-1,-3,0,2,1,0,3,2
15:34:20.854681,-2,0,1,-3,-2,-2,1,-1
15:34:20.869671,-5,-2,-2,-3,-4,0,-4,-4
15:34:20.869671,1,3,2,2,0,3,0,0
15:34:20.891658,-1,-3,-2,-1,-1,-2,2,-1
15:34:20.892656,1,-1,-2,-4,-2,2,0,-3
15:34:20.914641,-1,-1,-3,1,1,0,-1,-1
15:34:20.914641,-5,-2,-1,-2,0,1,0,0
15:34:20.929632,0,0,-1,-3,-5,-2,-3,-2
15:34:20.929632,3,0,1,-2,-3,-1,-2,0
15:34:20.951618,1,0,-3,-1,1,0,0,-2
15:34:20.952621,-2,-4,0,1,-1,-2,-2,0
15:34:20.974605,3,0,-2,-1,-3,-5,-4,-1
15:34:20.974605,2,1,-2,-1,1,0,-3,0
15:34:20.989595,0,-3,-2,-3,-1,-1,1,-2
15:34:20.989595,-4,-1,1,-1,0,2,1,-1
15:34:21.011582,0,0,3,2,2,2,-3,-1
15:34:21.012581,1,-3,1,-1,-3,1,-2,0
15:34:21.034567,1,0,-3,-1,4,-3,-1,0
15:34:21.034567,-4,-1,0,-3,-3,1,-1,-1
15:34:21.049561,-2,-1,1,-2,-7,-1,0,-4
15:34:21.056556,2,-2,-4,-4,0,0,0,-5
15:34:21.071547,-2,1,-1,1,-2,-4,0,2
15:34:21.072544,-2,-1,1,-1,-2,-5,-2,0
15:34:21.094531,-4,0,-2,-1,-2,-2,-2,-1
15:34:21.094531,0,1,0,-2,-4,-3,-3,2
15:34:21.109521,-2,-1,2,-1,-1,-2,0,-2
15:34:21.109521,1,-3,0,1,0,-1,2,-1
15:34:21.131508,1,-1,-1,-1,-1,1,0,-1
15:34:21.132509,-1,0,-1,-2,-2,1,0,3
15:34:21.154495,-2,-2,-2,-4,1,-3,0,-4
15:34:21.154495,0,-3,-2,-3,-2,-1,-1,0
15:34:21.169484,1,-2,-2,-1,1,1,-2,-1
15:34:21.170486,-2,-3,0,0,3,-2,-2,-1
15:34:21.191472,-1,0,-1,-4,-1,2,2,-1
15:34:21.192472,0,1,-3,-2,0,0,-2,2
15:34:21.214458,-3,1,-1,2,3,-2,-1,-2
15:34:21.215458,0,-3,0,-1,-1,-5,-4,-2
15:34:21.229448,-3,0,-1,2,0,-2,-3,-2
15:34:21.236445,-1,-3,-1,-3,-3,2,1,-2
15:34:21.251432,-2,-2,-1,-3,-6,-2,-2,-1
15:34:21.252432,-1,4,2,1,6,5,1,3
15:34:21.274418,-2,-1,-2,-3,-4,0,-2,-3
15:34:21.275423,-1,-1,-2,1,-4,1,-1,-1
15:34:21.289412,-2,-1,-1,1,1,-3,-3,0
15:34:21.297407,-2,0,-1,1,0,-3,0,-2
15:34:21.311398,-2,-1,0,-1,-2,-3,-4,-2
15:34:21.312396,-3,0,0,-1,5,1,-2,-1
15:34:21.334384,1,-1,-1,0,0,-2,-1,-4
15:34:21.335380,0,-2,1,1,-1,0,-4,-3
15:34:21.349372,-1,-1,1,3,4,3,0,1
15:34:21.356367,-3,-3,-1,-1,-2,-2,0,0
15:34:21.371357,-1,-2,-2,-1,0,1,-1,0
15:34:21.372360,-3,-3,-1,-2,-4,-2,-1,3
15:34:21.394344,-2,-2,-2,-4,-5,-4,-5,-2
15:34:21.395344,-1,-3,1,-2,1,1,-1,0
15:34:21.409337,-2,1,-2,-1,-3,-1,-3,-4
15:34:21.424328,-1,-4,-1,-4,0,0,-1,1
15:34:21.431326,1,0,1,2,2,-3,-1,-2
15:34:21.432323,-1,-1,-1,0,-2,-2,-2,2
15:34:21.454310,0,-1,-1,4,7,3,0,2
15:34:21.455306,-1,-1,-1,0,1,1,-4,-1
15:34:21.469300,0,-1,0,-1,0,-2,0,-1
15:34:21.476295,-1,-4,-2,-1,-2,3,0,-2
15:34:21.499282,1,2,0,0,-1,0,0,-1
15:34:21.500278,1,-2,-5,-2,-3,-2,-1,-3
15:34:21.514273,-2,-1,-2,0,0,0,-2,3
15:34:21.515272,1,1,0,2,1,-1,0,3
15:34:21.529263,-4,-2,-3,-6,-4,-4,-2,-3
15:34:21.537260,-1,3,-1,0,-1,0,0,-3
15:34:21.552246,0,-2,-2,-6,-3,-1,-1,-3
15:34:21.552246,-4,-2,-4,0,1,-1,1,0
15:34:21.574235,1,0,-2,0,-2,-2,-3,-4
15:34:21.575233,-2,1,0,-1,2,-3,0,0
15:34:21.589226,-3,-2,-4,-1,0,0,-1,-4
15:34:21.597221,0,2,2,0,-3,-1,0,-1
15:34:21.612210,0,-1,0,1,-3,-2,-1,-2
15:34:21.612210,0,1,-1,0,3,-1,1,1
15:34:21.634198,-3,-2,-3,1,-3,-1,-2,-1
15:34:21.635198,-3,-1,-2,-1,-2,-2,-3,2
15:34:21.649189,-2,0,-4,-3,-1,-2,3,-1
15:34:21.657181,-1,2,2,6,5,0,2,1
15:34:21.672171,2,0,-4,-7,1,5,3,2
15:34:21.672171,-2,-1,-3,0,-4,-1,-1,-2
15:34:21.694160,-1,2,-1,0,-2,-1,-2,-3
15:34:21.695157,1,-3,-1,1,1,1,1,0
15:34:21.709150,-1,-1,0,-1,2,-5,0,-1
15:34:21.717146,2,-1,-3,-4,-2,0,-3,-1
15:34:21.732137,-2,-3,-2,-6,-9,-2,-3,-5
15:34:21.733137,-4,-4,0,-5,0,-4,-1,-4
15:34:21.754124,0,0,-3,0,2,-1,-1,0
15:34:21.755123,0,-3,-1,-3,-4,-3,-2,-1
15:34:21.769113,-3,-5,2,-1,2,1,-3,2
15:34:21.777106,-2,0,0,-1,-1,-1,0,-3
15:34:21.792100,0,0,-1,-1,2,-7,-1,-4
15:34:21.792100,-3,1,-4,-2,-4,0,-3,0
15:34:21.814083,5,3,0,2,4,0,5,3
15:34:21.815084,-3,-3,-3,-1,-4,-2,-3,-4
