timestamp,emg1,emg2,emg3,emg4,emg5,emg6,emg7,emg8
18:55:46.175817,2,-1,-1,-1,-1,1,4,4
18:55:46.182816,-6,-3,1,-2,-4,-3,0,-4
18:55:46.183815,1,0,0,-3,-3,-3,-6,-5
18:55:46.204801,0,-1,-1,-3,-2,-2,-2,2
18:55:46.205798,1,1,-1,-1,4,0,-1,-1
18:55:46.227785,0,-2,-2,-1,-3,-1,-4,-1
18:55:46.229784,-2,-4,-3,-3,-2,1,0,-3
18:55:46.242775,1,-3,-1,2,2,0,-2,-2
18:55:46.243776,-4,-2,-4,-1,8,0,-2,-1
18:55:46.265762,-1,-1,0,-1,1,1,-2,-2
18:55:46.265762,-1,-3,-3,-2,-4,1,-1,1
18:55:46.287751,-3,-3,-4,0,-5,1,17,2
18:55:46.288749,-2,-1,-1,6,-4,0,-10,-7
18:55:46.302741,3,0,2,0,5,0,-6,17
18:55:46.303737,-4,-2,-1,-3,-5,-1,1,-5
18:55:46.325725,1,1,-1,-2,0,-3,-3,-8
18:55:46.325725,1,-1,0,-3,-4,-4,0,4
18:55:46.347713,-1,1,-3,-4,-1,-1,-5,-5
18:55:46.348710,-3,-4,-3,-1,2,-1,-3,-3
18:55:46.362704,-3,-1,-2,0,0,0,-1,0
18:55:46.363703,7,0,-1,0,-1,1,-1,0
18:55:46.385691,2,-2,-2,-4,-2,-1,-1,-2
18:55:46.386689,-4,-3,0,2,2,0,9,1
18:55:46.407676,2,1,1,-1,-8,-6,-8,5
18:55:46.408675,0,2,-1,6,5,-6,2,-2
18:55:46.423664,-2,-2,0,-2,2,2,3,-4
18:55:46.423664,2,2,-1,4,-5,3,5,12
18:55:46.445654,0,-2,-1,0,3,-3,0,-8
18:55:46.446651,-2,-4,-1,-1,-1,1,-2,-3
18:55:46.467637,-2,-2,1,1,0,-3,-3,-1
18:55:46.468638,4,0,-3,-1,-1,0,0,1
18:55:46.482628,-5,-2,-1,-1,0,-3,-1,-1
18:55:46.483629,-5,-2,-1,-2,2,-1,-4,-4
18:55:46.505613,0,1,-2,-3,-4,-3,-3,1
18:55:46.505613,5,2,1,2,2,3,4,4
18:55:46.527599,-1,2,-3,-3,-2,0,1,5
18:55:46.528600,0,-3,-1,0,-3,-3,-2,-1
18:55:46.542590,1,1,-1,-13,-6,-1,-3,0
18:55:46.543592,-1,-1,-1,0,4,-3,11,1
18:55:46.565579,-2,-4,-4,-7,-3,1,-4,-6
18:55:46.566575,-1,-1,0,-5,-4,0,-1,1
18:55:46.587565,1,-2,-2,0,-4,-3,-2,-3
18:55:46.588564,5,4,-1,-1,3,10,5,-4
18:55:46.602555,-5,-6,-4,-1,-1,0,2,-5
18:55:46.603553,-1,0,-2,-2,-1,1,-4,-1
18:55:46.633533,-1,-2,0,-1,2,-1,-4,-4
18:55:46.633533,0,1,-2,-3,-6,-7,-21,-4
18:55:46.647525,2,-1,-1,-2,-7,-1,1,0
18:55:46.648524,3,-2,-1,-2,0,4,1,3
18:55:46.662516,7,-1,-1,-3,-1,-2,-1,-4
18:55:46.663516,-6,-4,0,-3,0,0,5,-4
18:55:46.685504,-3,0,-1,0,-1,-2,2,1
18:55:46.685504,-4,-6,-1,-7,-3,-1,-4,-4
18:55:46.707488,-3,-3,-2,5,3,0,-3,-3
18:55:46.708488,0,0,-2,-1,-5,-1,2,1
18:55:46.722478,-3,-1,-1,-1,-1,-4,-11,-13
18:55:46.723478,0,-1,0,4,2,1,1,5
18:55:46.745467,-6,-1,0,-3,-6,-2,-4,-4
18:55:46.746466,6,5,0,0,-1,5,10,5
18:55:46.768449,7,0,-1,-2,-4,2,2,2
18:55:46.768449,-7,-5,-4,-2,-5,-5,-7,-6
18:55:46.783444,9,3,2,3,-1,0,-1,4
18:55:46.790439,1,3,0,1,3,-2,7,3
18:55:46.805430,-4,-2,0,3,-4,-1,-1,2
18:55:46.806430,0,0,0,-2,-5,-2,-10,5
18:55:46.827413,-1,-1,0,-1,0,-4,0,-5
18:55:46.828413,-2,0,-1,-1,0,0,1,-5
18:55:46.850398,-4,-5,1,0,-1,-4,-2,-1
18:55:46.851398,1,-1,-3,-1,-5,1,2,-1
18:55:46.865392,2,3,0,3,1,1,-2,-2
18:55:46.866389,4,-1,-1,-2,-3,-1,0,-1
18:55:46.887375,-5,0,-1,0,4,-2,-2,0
18:55:46.888375,0,-3,-3,-1,0,-1,8,-3
18:55:46.903369,2,-2,2,3,-3,-4,-9,-6
18:55:46.910364,-5,1,0,-2,2,2,9,9
18:55:46.925355,-3,0,-3,-1,-5,-6,-8,-9
18:55:46.926353,-7,-5,-1,-4,-4,-1,-1,-4
18:55:46.948340,4,-2,-2,2,0,-4,-13,7
18:55:46.948340,0,-2,2,3,3,0,3,0
18:55:46.963331,-4,-2,-2,-3,-7,-6,-6,-9
18:55:46.970327,-1,1,-3,-1,-2,-2,1,-2
18:55:46.985318,-6,-5,2,-3,1,0,2,0
18:55:46.986318,-3,-2,-3,-1,-1,0,-1,-4
18:55:47.008301,-10,-1,-2,-1,-1,-2,13,-1
18:55:47.008301,-6,-5,-2,-3,1,-1,-2,-7
18:55:47.023292,0,1,1,-4,-4,-1,6,7
18:55:47.030287,-4,-1,-3,1,-1,-1,0,-1
18:55:47.045281,2,2,-1,-6,-5,-5,1,-3
18:55:47.046280,-2,-1,0,0,0,3,0,-1
18:55:47.068263,0,0,4,9,5,-1,1,-1
18:55:47.068263,-3,-3,-2,-6,-5,-2,-6,-6
18:55:47.083257,-6,-5,-1,-4,-2,-1,-2,-5
18:55:47.090250,0,2,1,2,-3,1,-1,0
18:55:47.105243,-3,-3,-2,-5,-1,1,0,-1
18:55:47.106242,0,0,-2,-1,-6,-1,-13,-1
18:55:47.128226,-4,-3,-1,-1,-4,-1,0,0
18:55:47.129226,1,-2,0,3,5,1,-10,7
18:55:47.150216,-3,-3,-3,-4,-8,-3,-19,-8
18:55:47.151212,-4,0,1,8,1,0,0,0
18:55:47.165205,-1,1,1,-5,-3,0,1,-1
18:55:47.166203,-1,-1,1,-5,-4,-1,1,-2
18:55:47.188189,6,2,-1,-1,-2,-2,-3,2
18:55:47.189189,-5,-6,-2,-3,0,-1,1,-2
18:55:47.203181,-6,-1,1,1,3,1,1,-2
18:55:47.218174,0,-2,-1,-2,2,4,-3,-4
18:55:47.225166,0,0,-1,0,-3,-4,-4,-2
18:55:47.226166,1,2,-3,-2,1,3,0,-3
18:55:47.248152,-1,-1,-3,-3,-5,-4,12,7
18:55:47.249153,0,-2,0,-3,0,-2,-16,-6
18:55:47.263146,5,0,0,-1,-2,-6,-9,-1
18:55:47.271139,-3,-1,2,-2,1,-2,2,-4
18:55:47.285131,-4,-1,-1,-1,-1,2,2,-1
18:55:47.286130,-4,-3,0,-3,-3,-2,-2,-1
18:55:47.308114,-4,-1,-2,-4,0,3,1,-3
18:55:47.308114,6,-2,-3,0,3,1,4,9
18:55:47.330104,3,-1,-2,-1,0,-2,3,5
18:55:47.331103,-2,-3,-1,11,6,3,0,-2
18:55:47.345092,-3,1,-2,1,0,-1,-1,-1
18:55:47.346092,0,1,-1,-2,-4,4,5,3
18:55:47.368081,-6,-1,1,-3,-2,-6,-4,4
18:55:47.368081,-3,4,3,-1,2,3,4,0
18:55:47.390070,0,-1,3,0,0,-2,1,-1
18:55:47.391066,2,-3,-1,-1,-1,-3,0,-1
18:55:47.405054,-3,0,-3,-2,-1,0,-4,-2
18:55:47.406054,-5,-2,-1,-1,-2,-1,0,-1
18:55:47.428041,-3,-3,0,-1,1,1,-1,-1
18:55:47.429041,-5,-4,-2,-2,-1,2,-3,-2
18:55:47.450027,-1,-2,-3,-1,-6,-5,3,5
18:55:47.451029,-2,-3,0,3,3,1,-3,-3
18:55:47.466019,-2,-1,-1,0,-2,0,6,1
18:55:47.466019,-5,-3,-4,-2,-2,-3,-9,-8
18:55:47.488006,-1,-1,-4,-12,-8,-1,-24,-3
18:55:47.488006,-2,-2,0,0,2,-4,18,-9
18:55:47.510989,-2,-3,-1,-2,1,1,-1,0
18:55:47.510989,1,3,0,3,-1,-1,6,0
18:55:47.525979,-7,-4,-1,-4,-2,-3,-1,-2
18:55:47.525979,-4,4,-1,1,0,-4,-8,-9
18:55:47.547969,-1,-1,0,4,4,0,-1,3
18:55:47.548968,-5,-3,0,1,1,1,-3,-5
18:55:47.585942,-4,-1,-1,-3,-1,0,2,5
18:55:47.585942,-1,5,1,0,-1,1,2,1
18:55:47.586943,-3,-1,0,-1,-5,-3,-4,-3
18:55:47.586943,0,-3,0,-2,-2,-2,-26,-3
18:55:47.607932,-2,0,0,-2,1,-1,-2,0
18:55:47.608928,-3,-2,1,1,1,1,-12,-4
18:55:47.630914,-5,-2,-1,-12,-10,-7,-7,-11
18:55:47.630914,10,3,-1,5,4,6,-8,-1
18:55:47.645905,-4,-4,-3,-5,-2,-2,-4,-4
18:55:47.652904,6,-2,-1,-3,-4,-2,-1,-2
18:55:47.667895,0,0,-2,-2,0,0,7,4
18:55:47.668892,-1,-2,-1,-1,-2,-2,-2,-5
18:55:47.690878,0,1,-3,3,-3,-3,-3,-2
18:55:47.690878,0,2,-1,0,-1,-4,-1,0
18:55:47.705871,-1,-2,1,1,0,-1,13,-1
18:55:47.712866,0,-1,2,0,2,5,-5,4
18:55:47.727857,-8,-9,-4,0,1,-2,1,2
18:55:47.728854,6,1,-1,-1,1,0,1,2
18:55:47.750843,5,2,1,3,2,2,7,10
18:55:47.750843,-1,-3,-1,-3,-3,-1,1,-1
18:55:47.765833,4,-1,-1,-2,1,3,1,-1
18:55:47.772827,0,-2,-2,0,0,1,1,-1
18:55:47.787820,1,-1,-2,9,-1,-1,0,1
18:55:47.788817,-1,2,2,-3,2,-2,-4,-1
18:55:47.810803,-4,-1,-5,-4,-2,-3,-14,-11
18:55:47.810803,1,-1,-4,-3,-2,-4,5,-4
18:55:47.825797,0,-2,-1,0,-8,-2,1,-1
18:55:47.832789,5,2,-1,1,-1,1,-4,-1
18:55:47.847783,9,5,-1,1,0,-2,-20,5
18:55:47.848781,1,-1,-4,-1,-2,1,5,4
18:55:47.870765,-1,-3,1,0,-3,-2,-3,-3
18:55:47.870765,-3,-2,-2,-1,-1,1,1,-3
18:55:47.885759,-2,1,-1,2,-1,3,1,-1
18:55:47.892752,3,0,-3,-2,-1,1,-1,0
18:55:47.907746,-3,-3,-3,1,-2,-1,0,1
18:55:47.908743,-2,-4,2,1,2,-1,-1,-5
18:55:47.930731,-3,0,0,-1,-4,-3,-2,0
18:55:47.931729,4,4,4,1,1,0,2,0
18:55:47.952715,-4,-1,-3,3,3,1,-6,-3
18:55:47.953714,1,1,-2,0,-3,2,9,10
18:55:47.967709,-1,-2,-1,-3,2,2,7,-2
18:55:47.968708,-3,-3,0,-4,-3,2,-2,-6
18:55:47.990692,-4,-2,-3,-1,-2,-4,16,-2
18:55:47.990692,4,2,3,1,0,0,-2,2
18:55:48.005685,7,0,-3,-1,5,2,-1,-4
18:55:48.013681,0,0,-1,3,-1,-4,-1,-1
18:55:48.027668,-7,-3,1,0,4,-2,-4,-1
18:55:48.028668,1,0,0,-1,-2,-6,-3,2
18:55:48.050655,-2,-3,0,0,-1,0,-5,-2
18:55:48.050655,3,-5,-1,0,2,-1,-3,-3
18:55:48.065648,0,1,1,0,-6,-5,11,0
18:55:48.072643,-2,-1,-2,-1,-1,1,-2,-5
18:55:48.087634,-1,-2,-1,-3,-2,-5,0,-3
18:55:48.088633,3,2,0,11,4,1,2,6
18:55:48.110620,13,2,0,-6,-7,-1,12,23
18:55:48.110620,-2,1,-3,-1,1,0,-4,-4
18:55:48.125611,1,-3,-2,-1,-3,-1,1,-2
18:55:48.133604,-3,0,-3,-2,-1,-3,17,4
18:55:48.147596,2,-4,1,4,-1,1,-3,-5
18:55:48.148594,-2,-2,0,0,2,-2,-1,-2
18:55:48.170580,2,-1,-5,-3,-3,-2,12,1
18:55:48.170580,1,1,1,1,-1,2,-9,0
18:55:48.185574,-2,-2,-1,-1,-2,0,-11,-1
18:55:48.192567,-2,-2,-1,0,5,-1,1,-8
18:55:48.207558,-2,-1,-3,-4,0,-1,-1,-1
18:55:48.208559,5,0,-2,-3,-2,-1,-1,-1
18:55:48.230547,-2,-2,3,7,-2,-5,-4,-5
18:55:48.231542,-5,-1,-2,-1,2,2,0,-2
18:55:48.245536,-5,-5,-3,-3,-4,-2,-1,-2
18:55:48.253529,1,-3,-5,-1,-4,-1,-4,-6
18:55:48.267520,-7,-3,-2,-4,2,0,2,1
18:55:48.268521,0,-2,1,0,0,-3,-3,-4
18:55:48.290508,-1,-2,-2,-1,1,-3,-4,-6
18:55:48.291508,1,-4,-5,-5,-1,-2,14,5
18:55:48.320490,-4,-5,0,-2,0,-1,-8,-5
18:55:48.320490,4,-2,-2,-2,-4,0,5,-1
18:55:48.327482,-4,-1,-2,-2,0,-1,1,-2
18:55:48.328482,0,2,-1,-3,-1,-3,-1,-2
18:55:48.350471,-5,-4,-1,-2,1,-2,1,0
18:55:48.351469,-3,1,-1,1,-4,-3,0,-3
18:55:48.373453,0,-2,-1,0,1,-2,-6,-4
18:55:48.373453,-1,0,-1,-2,-4,2,-3,-2
18:55:48.388450,6,1,1,3,2,2,0,0
18:55:48.388450,4,-1,-1,-1,-4,-2,-2,-3
18:55:48.410434,7,3,-1,1,0,5,7,3
18:55:48.411433,-5,-2,-1,-2,1,2,9,0
18:55:48.432418,1,1,-1,7,1,-2,-17,-10
18:55:48.433419,-1,-1,-2,-1,2,-2,3,3
18:55:48.448407,1,-1,-1,-2,-5,-2,1,-2
18:55:48.448407,-4,-1,-3,-3,-3,-1,0,-4
18:55:48.470397,0,0,0,3,1,1,-1,1
18:55:48.471397,0,-4,-2,-3,-3,0,-3,1
18:55:48.493381,3,-3,-4,2,-1,2,1,0
18:55:48.493381,5,1,0,1,-4,-3,-24,-4
18:55:48.508372,1,-4,-3,0,-3,-2,-1,-4
18:55:48.515368,-5,0,-4,0,-8,-2,2,-2
18:55:48.530360,-5,-2,-1,-1,-1,-2,-4,-4
18:55:48.531359,-2,-1,1,1,1,3,15,1
18:55:48.553345,2,-2,1,0,-2,-2,-1,-2
18:55:48.553345,-1,-2,-4,-2,-3,0,4,0
18:55:48.568336,-1,-2,-2,0,-2,-2,0,-3
18:55:48.575332,-3,-5,0,-2,-8,-5,-5,0
18:55:48.590323,0,-1,-3,0,-1,-2,0,3
18:55:48.591319,-2,-4,-1,-2,-1,-4,-4,-3
18:55:48.613306,0,-4,0,-4,-2,-1,-1,0
18:55:48.613306,6,-3,-2,0,-5,-2,1,2
18:55:48.628299,-4,-3,-1,1,8,1,-5,-6
18:55:48.635292,4,0,-5,-18,-9,-2,4,8
18:55:48.650285,-11,-7,-5,-2,0,-1,-6,-10
18:55:48.651283,2,3,-1,-1,0,-7,-10,-7
18:55:48.673272,0,-2,-3,-3,-8,4,7,5
18:55:48.673272,-6,-2,-1,1,-3,-4,-9,-13
18:55:48.688259,3,1,0,1,-6,-1,5,11
18:55:48.695256,3,4,2,0,0,-1,-7,-10
18:55:48.710248,1,1,-2,-6,0,-3,8,0
18:55:48.711245,-8,-6,-2,3,0,-2,8,2
18:55:48.733231,-1,-5,-4,-7,-3,-2,0,1
18:55:48.733231,-7,-3,-2,-4,-2,0,1,1
18:55:48.748225,-1,0,1,1,3,1,2,1
18:55:48.755218,-3,0,1,0,0,-11,9,-5
18:55:48.770211,0,-2,-2,1,3,-4,-7,-3
18:55:48.771208,-1,-3,0,-1,5,6,1,-1
18:55:48.793194,-1,-3,0,0,5,3,-2,-5
18:55:48.793194,-1,0,-1,8,2,-1,-3,0
18:55:48.808188,-2,0,-3,-3,2,-1,-1,-1
18:55:48.816179,0,-2,-2,0,-2,-3,0,1
18:55:48.831174,-3,-4,-2,-2,-6,-7,0,-1
18:55:48.838166,-1,-2,0,2,3,1,0,2
18:55:48.853156,-5,-2,-5,0,1,-1,-2,-5
18:55:48.854159,-2,0,-1,-3,-21,-1,0,-2
18:55:48.868150,2,-1,-3,-6,5,-2,0,1
18:55:48.875143,-2,0,-4,-1,0,-4,-4,3
18:55:48.890137,-6,-2,1,-3,-3,-4,-2,0
18:55:48.891136,1,2,2,1,-2,1,0,3
18:55:48.913122,-6,-2,-1,-2,-6,-2,-3,1
18:55:48.914122,0,1,1,0,-3,0,-2,-2
18:55:48.928113,-1,1,-2,1,-1,3,1,-1
18:55:48.935105,-2,-6,-2,-9,-4,-4,-2,1
18:55:48.950098,13,3,1,-2,2,3,-2,2
18:55:48.951099,1,0,2,2,1,3,4,3
18:55:48.973085,7,6,-1,10,1,0,-2,0
18:55:48.974081,-2,2,3,2,0,-1,-2,-1
18:55:48.988076,-3,-3,-3,3,16,0,-1,-2
18:55:48.996070,-1,-4,0,1,8,-1,-1,0
18:55:49.010059,-4,-2,-5,-3,1,4,4,1
18:55:49.011061,1,0,1,0,0,-1,7,8
18:55:49.033047,6,4,3,9,5,1,0,-1
18:55:49.034047,-5,-3,-3,-13,-4,-1,0,-1
18:55:49.055031,-6,0,3,1,1,0,2,1
18:55:49.056031,0,4,0,-4,2,2,-2,0
18:55:49.078017,-2,1,-3,-3,6,4,1,2
18:55:49.079017,0,0,4,14,21,-6,-1,-1
18:55:49.093011,-5,-4,-3,-19,1,-1,-1,-3
18:55:49.094008,-2,3,-3,-2,5,2,2,4
18:55:49.108001,0,-4,-1,-16,-7,1,1,0
18:55:49.115996,4,0,-2,-1,-4,-1,-1,3
18:55:49.129986,-6,-6,0,-4,-2,-3,-1,1
18:55:49.130987,-3,3,-3,5,3,0,-4,-7
18:55:49.152970,-3,1,0,0,-5,-1,0,-4
18:55:49.153970,6,1,0,3,0,1,0,3
18:55:49.167964,-3,1,0,1,3,0,0,-1
18:55:49.175959,4,-4,0,-5,-27,-1,2,5
18:55:49.189949,-3,1,2,-8,10,10,6,-1
18:55:49.190948,-1,2,3,3,1,-4,-3,-1
18:55:49.212937,0,-1,2,-1,1,2,1,0
18:55:49.213937,-5,-1,-1,1,1,-2,-3,-1
18:55:49.235920,0,0,-1,-1,-15,-5,-4,-2
18:55:49.235920,-3,-8,-4,3,5,0,-4,-3
18:55:49.250913,2,2,-1,-5,9,1,5,6
18:55:49.250913,4,5,5,6,4,1,0,3
18:55:49.272897,-1,0,0,-15,-17,-2,-2,0
18:55:49.273899,-5,1,-1,-3,15,-4,1,1
18:55:49.295882,-1,0,-4,-3,4,3,0,-3
18:55:49.295882,-1,2,-2,-12,-1,5,1,1
18:55:49.310873,1,0,0,6,12,2,2,3
18:55:49.310873,-2,-1,-10,-27,-24,-4,-4,-3
18:55:49.332862,2,0,-2,24,9,1,-4,-4
18:55:49.333861,-4,-6,-2,-14,-104,-16,-3,-5
18:55:49.355845,-1,-5,-8,-4,20,5,0,1
18:55:49.355845,-1,3,13,7,-3,1,1,0
18:55:49.370838,5,2,-14,-41,4,-14,5,4
18:55:49.370838,-1,-2,17,-45,46,29,0,-3
18:55:49.392825,20,17,19,-32,-128,-7,11,9
18:55:49.393821,-12,-25,-10,-15,-88,-72,-15,-10
18:55:49.422806,-10,10,8,64,-27,27,-2,-5
18:55:49.423805,13,11,-72,-128,-128,-128,-2,4
18:55:49.430799,-16,-4,69,119,-128,-50,-12,-26
18:55:49.437799,-39,-76,-106,-128,127,127,-6,-23
18:55:49.452788,-21,-75,-70,-128,-128,-128,-40,-13
18:55:49.453787,-49,6,62,-27,-128,127,-9,-8
18:55:49.475774,34,42,64,56,-128,-109,18,26
18:55:49.475774,12,23,38,127,127,62,15,5
18:55:49.490764,2,49,127,127,-128,-12,2,-17
18:55:49.497756,-24,7,4,-90,117,127,-19,-19
18:55:49.512751,21,13,12,65,127,127,17,9
18:55:49.513749,-13,-29,48,127,127,-67,-12,-10
18:55:49.535736,-22,-51,-102,114,62,8,-10,-6
18:55:49.535736,-10,30,13,-128,-47,-8,-10,-22
18:55:49.550727,17,49,-128,-128,127,-76,10,9
18:55:49.557720,-60,-128,-128,-125,-128,127,-30,-31
18:55:49.572713,-3,46,127,127,110,127,20,1
18:55:49.573714,51,-21,-91,21,-128,-59,23,38
18:55:49.595696,46,38,19,127,127,127,38,26
18:55:49.595696,74,127,112,127,127,127,58,49
18:55:49.610689,-7,74,-58,-128,-128,-128,-47,-25
18:55:49.617683,-78,-50,-56,-128,-128,-128,-19,-8
18:55:49.632676,49,127,127,-21,127,127,17,8
18:55:49.633675,44,127,109,-15,36,11,-5,0
18:55:49.655662,3,-82,-81,-128,127,49,11,15
18:55:49.656661,-16,10,-29,-128,-128,-128,10,-9
18:55:49.670653,-34,2,-9,-128,-128,-128,-12,-7
18:55:49.677645,-50,-128,-123,127,127,127,-14,-25
18:55:49.692638,56,71,56,-128,127,-83,22,32
18:55:49.693635,20,70,37,127,111,71,-10,-15
18:55:49.715625,6,20,25,62,-128,114,11,6
18:55:49.716626,-62,-128,-107,127,127,127,-6,-28
18:55:49.730616,43,113,120,16,-26,24,11,15
18:55:49.737611,-11,-26,0,127,127,127,5,-10
18:55:49.752600,-2,-55,-26,127,-78,62,8,7
18:55:49.753606,4,-1,-30,-128,-35,-44,-20,4
18:55:49.790575,-80,-128,-118,-117,18,127,11,-36
18:55:49.790575,15,-52,-43,30,127,127,24,15
18:55:49.791574,7,45,2,-78,-128,-128,-20,7
18:55:49.798575,18,-1,14,127,127,127,3,-7
18:55:49.812565,-39,-69,-51,21,127,127,-6,-17
18:55:49.813561,7,-45,-35,127,127,127,23,9
18:55:49.835550,6,23,31,-17,-128,-128,-5,10
18:55:49.836550,-15,-17,-18,-39,-128,-127,-10,-18
18:55:49.850541,9,-7,-39,-108,-128,-41,0,9
18:55:49.857537,-19,-68,-72,120,127,52,10,-3
18:55:49.872525,26,49,51,0,-128,39,10,13
18:55:49.873525,-12,-16,-15,29,-43,106,4,-5
18:55:49.895512,2,-14,-4,82,127,11,14,5
18:55:49.896509,29,85,98,127,127,127,15,4
18:55:49.910501,11,31,20,127,66,127,5,5
18:55:49.918496,22,62,41,-87,-128,-128,-6,10
18:55:49.933487,-41,-128,-110,-34,32,45,1,-8
18:55:49.933487,16,74,103,127,127,104,12,1
18:55:49.955473,5,-22,-25,-87,-128,-37,3,7
18:55:49.956475,36,127,127,-23,-128,-128,-5,-3
18:55:49.970467,-19,-32,-46,12,127,127,14,-5
18:55:49.985457,23,45,45,127,-116,-128,2,16
18:55:49.992450,-15,-16,-21,26,45,73,-5,-13
18:55:49.993450,15,20,-7,-128,-128,-71,1,10
18:55:50.015439,0,-8,8,76,-92,-3,0,3
18:55:50.016438,11,22,-3,-53,-128,-20,0,9
18:55:50.030429,-25,-80,-104,-53,89,109,-3,-3
18:55:50.038424,5,12,12,-50,-128,-22,-1,0
18:55:50.060410,5,0,-20,-70,-128,-94,-5,1
18:55:50.061408,2,0,15,9,127,127,9,1
18:55:50.075402,6,11,16,83,106,103,13,3
18:55:50.076401,0,-3,-2,-21,-56,-29,1,5
18:55:50.098384,6,17,29,127,40,-27,4,5
18:55:50.098384,-8,-3,16,25,-84,1,0,-4
18:55:50.113376,4,11,7,22,113,113,3,2
18:55:50.113376,14,13,1,55,-128,127,8,8
18:55:50.135364,-10,-14,-11,-10,-84,-62,-9,-7
18:55:50.136363,7,14,21,-13,-86,-81,1,4
18:55:50.165343,-5,-3,-4,-33,-14,-10,-3,-1
18:55:50.166343,6,9,17,79,69,0,0,3
18:55:50.172341,-1,-3,-3,1,99,20,0,-2
18:55:50.173340,-2,-1,-32,-41,-44,-7,-2,0
18:55:50.195324,2,-2,-10,-27,66,8,0,-1
18:55:50.196326,-1,-1,1,8,-12,-7,-3,-2
18:55:50.218309,0,-2,-6,-13,-23,-11,-3,-4
18:55:50.218309,-9,-3,-1,-2,0,-3,1,-1
18:55:50.233300,-1,0,0,2,0,2,7,5
18:55:50.233300,-15,-7,1,7,4,-20,-46,-43
18:55:50.256286,-8,7,5,-1,6,27,-20,18
18:55:50.256286,35,-4,-18,-16,-18,-10,-3,8
18:55:50.278273,-20,10,10,8,6,1,50,11
18:55:50.278273,-10,19,4,-2,2,-3,77,4
18:55:50.293264,12,10,-5,-3,-1,-6,-20,-17
18:55:50.294263,8,1,0,-4,0,8,127,39
18:55:50.315252,43,29,-9,-17,-14,22,-128,-45
18:55:50.316251,127,-125,-41,-26,-38,-39,127,32
18:55:50.338235,-128,-90,14,10,10,-14,127,-127
18:55:50.338235,127,127,35,21,5,11,-128,127
18:55:50.353234,-128,-65,-6,15,-3,-50,127,-63
18:55:50.354227,86,27,-11,-11,18,39,-128,127
18:55:50.375218,-88,-25,-13,18,-16,-27,127,-119
18:55:50.376212,-128,93,49,72,59,31,127,-117
18:55:50.390206,7,-6,-54,-128,-128,-128,81,61
18:55:50.391205,-116,12,127,127,127,127,127,-128
18:55:50.406194,18,2,-34,-100,-128,-80,-128,127
18:55:50.413192,24,61,-52,-115,-128,-126,127,-108
18:55:50.428183,-54,22,38,127,127,66,127,-88
18:55:50.435176,127,97,-5,-57,-32,87,-61,127
18:55:50.450168,0,43,63,61,125,-44,95,23
18:55:50.451165,-128,-66,-90,-62,127,41,127,-53
18:55:50.466156,29,-28,-19,-57,-5,-128,-62,-39
18:55:50.473155,-82,-17,18,-84,60,51,-4,2
18:55:50.488146,-128,-128,-38,-16,-64,-88,127,-128
18:55:50.496139,99,127,10,0,-7,45,127,11
18:55:50.510129,33,-13,7,62,-31,25,-12,-4
18:55:50.511128,-79,-29,-26,-103,-90,-88,-65,55
18:55:50.533117,-13,1,-8,58,-128,-22,92,-109
18:55:50.534117,87,9,22,39,40,-16,0,23
18:55:50.555102,43,33,18,-25,-35,49,29,39
18:55:50.556100,48,2,-15,-128,-70,-52,-49,-46
18:55:50.578087,74,3,-1,82,58,54,127,127
18:55:50.579086,-18,-30,-2,11,88,25,-91,32
18:55:50.593080,-48,-15,7,-13,-15,-12,-16,-45
18:55:50.594080,22,-3,15,7,-31,20,10,-1
18:55:50.623062,-33,-17,-1,25,127,8,-24,-31
18:55:50.624062,6,5,18,24,43,14,45,68
18:55:50.638052,127,76,16,21,6,32,-128,71
18:55:50.639049,33,18,1,-72,13,10,93,-3
18:55:50.653043,-12,-6,-2,14,127,63,38,-7
18:55:50.654039,-9,-11,8,19,9,2,20,5
18:55:50.676026,-1,0,-13,-22,-128,-10,-3,-8
18:55:50.676026,-3,0,7,32,43,-6,-31,-6
18:55:50.698015,41,31,-3,24,-128,16,19,10
18:55:50.699014,-7,2,-11,-3,34,-27,-16,-10
18:55:50.713006,21,17,-5,-69,52,43,16,38
18:55:50.714005,49,22,15,-13,-34,14,17,-11
18:55:50.734990,-24,-21,1,30,79,-3,-8,-16
18:55:50.735990,-4,0,4,-20,-2,-2,17,34
18:55:50.757978,13,6,0,-4,-128,-36,-10,-14
18:55:50.758977,-6,6,16,53,116,31,0,7
18:55:50.772969,-36,-12,-12,5,-74,0,-1,-32
18:55:50.773969,4,-10,-3,-20,-14,-44,-27,-19
18:55:50.795952,-1,-4,1,-37,-90,-51,-33,-34
18:55:50.795952,26,7,-1,11,-19,-9,43,29
18:55:50.817941,4,2,2,6,4,3,20,10
18:55:50.818940,-11,-9,-4,-41,-71,-2,0,-7
18:55:50.832932,10,3,-2,4,35,-5,-3,1
18:55:50.833931,-8,-1,8,-7,-95,-52,-64,-11
18:55:50.855915,18,6,-7,7,75,25,-19,25
18:55:50.855915,-19,-6,-4,-15,-11,-1,9,-13
18:55:50.877904,-10,-4,0,16,11,-3,-6,-14
18:55:50.878901,-4,0,1,-40,-1,-5,-8,-13
18:55:50.892895,-22,-1,-3,-10,-7,-5,1,-2
18:55:50.900887,44,14,-7,-2,8,-6,23,40
18:55:50.915880,-8,-5,0,-29,-66,-11,-5,-8
18:55:50.915880,-15,-11,-6,37,8,-24,-11,-16
18:55:50.937867,-4,-6,-2,-12,5,-6,-5,-6
18:55:50.938867,21,4,0,-4,3,6,16,19
18:55:50.960850,22,9,6,0,-23,14,38,61
18:55:50.960850,-26,-9,0,1,2,-5,-9,-21
18:55:50.975840,1,3,-4,-7,-5,6,-5,-9
18:55:50.975840,-2,3,3,3,1,1,7,10
18:55:50.997829,-5,-6,0,5,2,1,2,-6
18:55:50.998826,1,2,1,-30,-40,5,9,7
18:55:51.020812,-6,-1,-1,20,19,-3,-14,1
18:55:51.020812,-3,-5,-6,3,43,-1,14,-3
18:55:51.035805,3,3,1,2,-31,-17,4,5
18:55:51.036802,-10,-6,-3,2,14,1,13,-12
18:55:51.057792,10,9,-4,-7,-15,-17,-8,-2
18:55:51.058791,-9,-1,0,4,0,6,-1,13
18:55:51.080778,-4,-2,-1,5,-1,1,-9,-11
18:55:51.081776,-6,-6,-3,-3,-7,-8,-6,-13
18:55:51.095766,0,-1,4,12,-88,-2,5,5
18:55:51.095766,0,-5,-8,-9,7,-3,2,8
18:55:51.117755,4,6,10,-18,-77,-3,1,14
18:55:51.118754,3,-2,-2,3,20,2,-1,-4
18:55:51.140741,2,-2,-4,0,-4,-5,-11,-2
18:55:51.147734,-11,2,-3,-1,-8,-5,17,-34
18:55:51.155728,11,1,-1,-20,-18,2,6,8
18:55:51.156731,-10,-2,3,33,49,2,-4,-12
18:55:51.178715,1,1,-5,-11,-65,0,15,23
18:55:51.178715,-3,-1,-4,-5,-8,1,-2,-4
18:55:51.200700,5,2,5,19,46,8,28,9
18:55:51.200700,-2,1,-3,-3,-7,-16,-6,-14
18:55:51.215695,-5,-4,-3,-2,-6,-2,-15,-4
18:55:51.216692,5,2,3,4,0,-4,-24,-13
18:55:51.237679,7,1,-3,-1,-2,-1,6,-8
18:55:51.238680,-3,-1,-1,-3,-1,-2,-3,-6
18:55:51.260666,-2,-1,-1,-8,-17,0,6,10
18:55:51.261664,9,0,-6,-29,16,-4,-6,8
18:55:51.275657,-2,1,2,0,14,4,5,0
18:55:51.276655,0,-5,-4,-8,-7,0,26,3
18:55:51.298649,-6,-5,-2,0,-2,2,-1,-4
18:55:51.298649,-1,0,-1,-1,-4,-3,2,-6
18:55:51.320629,-3,-2,-4,2,-3,-1,0,-6
18:55:51.321630,-2,-4,-2,-2,-2,0,-1,-4
18:55:51.335620,-6,-3,-4,-4,-3,1,4,0
18:55:51.336620,-12,-2,2,1,-4,-1,-3,-6
18:55:51.358602,-6,-4,-2,-4,2,1,1,2
18:55:51.358602,-7,-2,-2,-3,-7,-5,-7,-10
18:55:51.380592,-1,3,2,1,5,6,22,2
18:55:51.381591,6,4,3,8,2,6,8,7
18:55:51.395583,-3,-3,-1,-2,-2,-7,-6,-8
18:55:51.396579,-2,-4,-1,-2,1,-3,-18,-7
18:55:51.417567,1,-2,-6,-6,-6,-12,-6,-17
18:55:51.418568,-2,-3,3,1,-4,-6,-5,-3
18:55:51.440555,-6,-6,-4,-3,29,0,-10,-18
18:55:51.441554,-9,-9,-3,-3,-2,-6,-3,-6
18:55:51.455546,-2,-2,-2,-4,5,2,-1,-6
18:55:51.456545,-3,-2,2,-10,-36,-2,-1,-5
18:55:51.478529,-2,-1,1,-1,5,-5,-9,-6
18:55:51.478529,-1,-3,1,-1,1,5,1,2
18:55:51.500518,-3,-2,-3,-2,-3,-7,8,-7
18:55:51.501514,11,2,-2,-3,-4,2,-22,15
18:55:51.515506,-12,-8,-4,-3,-9,2,7,-11
18:55:51.516507,-3,-2,-1,-3,-1,-3,0,1
18:55:51.537492,0,1,-2,-1,-1,-3,-6,-4
18:55:51.538494,-2,-3,-3,-1,-1,-2,-1,-3
18:55:51.560480,-1,-1,0,-1,-5,-3,0,1
18:55:51.561477,-9,-5,-2,1,-5,-3,-24,-6
18:55:51.575471,-2,-2,-3,-5,-6,-6,-8,-9
18:55:51.576468,-2,-1,0,1,-1,-2,-2,4
18:55:51.598454,2,4,-1,-3,-1,-2,6,1
18:55:51.598454,2,2,-2,-28,-10,-4,-11,-11
18:55:51.628435,0,-1,0,-10,-42,0,0,7
18:55:51.628435,-6,-3,-1,1,5,-6,-6,-9
18:55:51.635434,-1,-1,-3,-5,0,-1,-5,-3
18:55:51.636431,-6,-4,-1,-3,0,0,-2,-9
18:55:51.658418,5,4,-2,-3,-3,-3,15,7
18:55:51.658418,4,2,0,0,2,1,4,1
18:55:51.680406,-6,-4,0,-3,2,-1,-2,-5
18:55:51.681405,1,1,1,-3,-4,-1,-7,-5
18:55:51.695394,-2,0,-1,-2,0,2,-2,2
18:55:51.696393,-3,0,2,1,1,4,-12,-5
18:55:51.718381,-2,-4,-4,-1,5,4,4,-6
18:55:51.718381,-4,-4,-3,2,5,2,-15,-3
18:55:51.740369,-5,-6,-6,-6,-6,-9,-15,-15
18:55:51.741368,1,-1,-1,-3,-1,2,-6,17
18:55:51.755360,-4,0,-1,-1,1,-3,-4,-8
18:55:51.756357,-2,-3,-3,0,-4,-3,-8,-11
18:55:51.778342,2,-2,0,-1,-1,-1,-1,6
18:55:51.778342,0,-2,-1,1,0,2,3,-1
18:55:51.800332,-3,0,2,3,6,2,-12,0
18:55:51.801331,-1,-1,0,0,-2,6,-4,5
18:55:51.815321,-2,-2,-1,-1,-1,-1,0,-2
18:55:51.823317,9,4,-2,1,0,-1,-1,-1
18:55:51.838305,1,2,1,1,-2,-11,-37,-19
18:55:51.838305,0,-1,-2,1,-3,-3,4,2
18:55:51.860294,6,1,-5,-2,2,-1,4,4
18:55:51.861291,-5,-7,0,-1,-4,-1,-2,-5
18:55:51.883277,1,0,5,5,5,-4,-1,1
18:55:51.883277,0,2,0,0,2,4,6,0
18:55:51.898268,5,1,1,1,3,3,6,8
18:55:51.899270,4,1,-2,1,2,1,1,18
18:55:51.920257,-6,-1,1,1,0,-3,1,-8
18:55:51.921256,-4,-2,1,-2,1,3,2,-1
18:55:51.943243,-7,-3,0,-2,0,1,0,-5
18:55:51.944240,7,1,2,-1,-1,2,-14,6
18:55:51.958234,-1,-4,-1,-2,-4,2,2,-9
18:55:51.958234,2,-2,0,0,2,5,3,6
18:55:51.995210,1,1,1,-2,-1,-2,-3,3
18:55:51.996208,-7,-1,1,4,3,-3,28,6
18:55:52.003203,9,5,0,1,-3,-2,-9,-9
18:55:52.004206,-3,-3,-4,-3,-1,-1,0,-3
18:55:52.018194,-9,-3,-2,1,-3,1,-3,-6
18:55:52.018194,3,-2,-2,-4,-5,-2,4,4
18:55:52.040181,-3,0,-2,-4,-1,-2,-5,-8
18:55:52.041179,6,4,-1,2,0,-2,-15,0
18:55:52.063169,-5,3,-2,2,-1,1,6,-15
18:55:52.064165,-3,-2,-2,0,-3,1,0,-1
18:55:52.078157,0,3,-3,-1,1,0,2,-3
18:55:52.079156,-3,-2,0,0,0,-2,-5,-6
18:55:52.100143,-1,0,-2,-1,-4,-4,-7,-6
18:55:52.101142,12,9,3,4,1,5,-3,4
18:55:52.123132,1,0,-3,0,0,-3,2,-2
18:55:52.124128,-3,-7,-3,0,-1,0,-1,-7
18:55:52.138122,-3,-2,-4,-2,-3,-2,-1,1
18:55:52.139120,-5,-2,-4,-4,-3,-1,5,8
18:55:52.161105,1,-2,1,-1,4,3,5,-3
18:55:52.161105,-3,0,0,1,-3,6,-6,-1
18:55:52.183091,-4,-2,-1,-1,-4,-8,1,5
18:55:52.184091,-3,-2,0,2,3,2,1,1
18:55:52.198088,-2,-1,-1,-2,-2,-2,-3,-4
18:55:52.199083,2,-1,-1,-2,0,5,-14,10
18:55:52.221068,-3,1,-1,0,-1,0,-2,-5
18:55:52.221068,8,2,-1,0,-3,-9,3,3
18:55:52.243057,-7,-3,-2,-2,-4,-1,-8,-8
18:55:52.244057,-1,-1,-1,-1,-4,-1,-14,1
18:55:52.258048,-2,-2,-1,-1,-2,-3,1,-1
18:55:52.266043,-4,-2,-1,2,-1,-5,12,2
18:55:52.281033,1,3,-1,-1,1,3,19,26
18:55:52.281033,-5,-4,1,0,-1,0,4,-2
18:55:52.303020,-1,-3,-1,-5,-3,-5,-7,-5
18:55:52.304018,-8,2,3,-2,-1,-2,8,-12
18:55:52.318011,1,-3,-2,-2,-2,3,3,15
18:55:52.319010,-2,-2,-1,0,1,1,-2,-4
18:55:52.340994,-4,-1,-2,-1,3,3,16,4
18:55:52.340994,2,-2,-5,-3,-4,-5,0,1
18:55:52.362983,-8,-4,0,1,2,-2,4,2
18:55:52.363979,0,3,-1,-3,-1,-1,10,6
18:55:52.377970,-5,-5,0,-1,-4,-2,-4,-3
18:55:52.385967,8,3,0,0,-2,4,2,1
18:55:52.400959,1,-2,-3,-2,-5,-2,2,-7
18:55:52.400959,0,-4,-2,-2,-3,1,9,1
18:55:52.422946,-1,-1,-2,0,-3,-2,-3,-1
18:55:52.423943,-1,-2,-1,0,-1,-3,1,0
18:55:52.437936,-12,-4,-1,-1,-1,-3,-2,-4
18:55:52.445929,-7,-5,-5,-4,0,-9,-17,-8
18:55:52.460919,4,-1,0,-5,-3,-2,10,12
18:55:52.460919,-9,-5,-3,0,-4,-6,-4,-8
18:55:52.482909,-2,2,-1,-3,0,1,-10,7
18:55:52.483905,0,0,2,-2,-4,-1,8,11
18:55:52.497899,-4,-3,1,1,0,-1,2,-4
18:55:52.505894,6,2,1,-3,1,2,-5,19
18:55:52.520881,-3,2,0,1,0,1,2,-4
18:55:52.520881,-13,-4,-3,-1,-4,0,1,-8
18:55:52.542871,-1,-1,0,-1,0,-3,1,-2
18:55:52.543867,6,2,-2,2,-1,-1,-7,4
18:55:52.557862,4,1,1,-1,-3,-1,5,8
18:55:52.565857,6,2,0,-3,-4,-4,-4,7
18:55:52.580845,-1,1,2,3,2,0,2,3
18:55:52.581847,0,-4,-4,-5,23,0,1,-1
18:55:52.602834,6,2,1,-3,-7,-12,-9,-6
18:55:52.603831,-3,-2,0,0,10,3,-22,-3
18:55:52.617824,1,2,-1,8,36,0,-1,-2
18:55:52.625820,-5,-4,-2,-8,3,-2,-4,-3
18:55:52.640807,-2,0,-1,8,8,-3,-2,-3
18:55:52.640807,-6,-6,0,-6,-11,-6,-11,-6
18:55:52.662797,-6,-3,-4,-3,-1,3,8,0
18:55:52.663794,-8,-6,-1,1,-2,-2,-4,-2
18:55:52.677787,4,2,1,1,0,3,-4,-1
18:55:52.685783,4,-1,-4,1,-2,-1,-6,-7
18:55:52.700770,8,0,6,1,4,6,5,3
18:55:52.700770,1,-2,-2,-1,0,-4,-17,1
18:55:52.730755,3,1,2,3,3,2,2,6
18:55:52.731751,-3,0,-3,-2,-4,-3,-1,-5
18:55:52.737749,8,2,-4,-2,-3,1,14,4
18:55:52.745743,1,0,-1,-2,-7,0,1,1
18:55:52.760736,-5,-5,0,-3,3,1,1,2
18:55:52.761734,8,1,1,-5,-5,-4,-4,-3
18:55:52.782720,-1,-3,-1,-9,1,2,3,3
18:55:52.783721,-2,-1,-1,4,1,-1,-3,-4
18:55:52.798711,2,0,-1,-3,-2,1,-2,1
18:55:52.805705,-7,-2,-3,-1,-2,-2,-14,-11
18:55:52.820699,5,6,0,2,3,11,-7,10
18:55:52.820699,-3,-1,-2,-2,-3,-5,-2,-5
18:55:52.842684,4,2,1,-1,-1,4,3,6
18:55:52.843682,-8,-2,1,1,4,-1,0,-11
18:55:52.857673,-5,-3,1,1,0,-5,-7,-7
18:55:52.865671,3,0,-3,-3,-3,-1,2,9
18:55:52.880661,-1,2,1,-1,3,-3,-4,-1
18:55:52.881658,3,0,2,3,4,8,10,5
18:55:52.902645,0,4,-4,-3,-6,-3,-11,-6
18:55:52.903644,-5,-3,-1,0,0,-5,-1,-3
18:55:52.917637,-3,-1,0,0,-2,-5,13,-2
18:55:52.925634,-4,1,0,0,-6,-1,-4,-4
18:55:52.940625,-4,-3,1,-2,-4,-3,8,-5
18:55:52.941624,8,5,0,-1,-2,1,-11,13
18:55:52.962611,-6,-2,-2,0,-4,-3,0,-7
18:55:52.963608,-4,-5,-1,1,-2,-5,-2,-3
18:55:52.978598,-10,-8,-6,4,-2,4,14,-3
18:55:52.985597,-2,-1,-1,-4,1,-2,-2,1
18:55:53.000587,6,2,-1,-3,-8,-6,-4,2
18:55:53.001587,4,-1,-2,-4,0,-2,1,-5
18:55:53.023571,-6,-3,-4,-2,-2,-4,-11,-9
18:55:53.023571,21,4,-2,-6,-45,0,-9,2
18:55:53.045559,-8,0,0,19,7,-5,-4,-9
18:55:53.046559,8,7,-3,-8,-6,-2,-31,-6
18:55:53.060549,-5,0,-1,5,28,-3,17,-5
18:55:53.061547,-1,0,0,-10,-51,5,2,-4
18:55:53.083534,1,-2,-2,4,16,1,-1,1
18:55:53.083534,4,0,-1,8,-5,5,22,23
18:55:53.105521,-3,0,2,1,-12,-1,-10,3
18:55:53.106522,-11,-8,-3,-3,-9,-6,-3,-6
18:55:53.120513,-4,-2,-1,1,-1,1,-1,-5
18:55:53.128507,-5,-2,0,0,-5,-5,-21,-7
18:55:53.142498,2,-2,-2,5,33,4,5,2
18:55:53.143496,4,-1,-2,-3,26,-2,-5,-6
18:55:53.165485,6,0,-1,0,7,5,-2,19
18:55:53.166484,-4,1,-1,-3,-7,-8,-12,-9
18:55:53.180474,-1,-4,0,1,-4,-1,8,10
18:55:53.181472,-5,-1,-1,8,4,1,0,-2
18:55:53.203460,0,0,-3,-10,-29,-5,-19,-6
18:55:53.203460,-1,1,1,1,10,4,-4,-5
18:55:53.225448,-4,-2,1,-1,-6,-6,4,-3
18:55:53.226444,0,0,-1,2,12,-1,-10,-7
18:55:53.240439,-5,1,0,-2,10,-1,-1,-14
18:55:53.241435,-6,-2,-1,1,7,-3,-4,-6
18:55:53.263421,-4,-3,-4,-10,-34,-5,14,-2
18:55:53.263421,5,3,4,4,14,5,17,24
18:55:53.285411,-6,-4,-1,-1,4,2,-5,-7
18:55:53.286407,-1,-3,-4,-4,-1,-2,-5,1
18:55:53.300401,-7,1,1,20,1,-3,15,-3
18:55:53.307419,-6,-1,4,-2,2,0,-6,-4
18:55:53.323384,0,0,-1,-1,3,1,2,3
18:55:53.323384,-2,-4,1,-3,-3,-2,-13,-1
18:55:53.345373,-5,-2,-1,-2,-4,-9,-11,-11
18:55:53.346370,1,0,2,-1,2,6,-2,-3
18:55:53.360364,3,-1,-4,4,23,3,9,11
18:55:53.368358,1,-5,-3,-10,-13,0,2,0
18:55:53.383347,0,2,-1,0,1,-6,4,11
18:55:53.383347,-3,-1,-4,8,30,4,-6,3
18:55:53.405336,4,0,-2,-6,-1,0,4,-2
18:55:53.406333,0,1,-3,1,2,1,2,-1
18:55:53.420327,-1,-2,-2,-24,-10,-4,-18,0
18:55:53.428319,1,-1,-1,0,3,3,12,2
18:55:53.443313,5,2,-1,-2,-1,-4,2,-1
18:55:53.443313,1,0,-3,-6,-5,-2,-9,0
18:55:53.465301,1,-1,-1,-1,0,2,12,12
18:55:53.466298,-4,-2,-1,-5,-5,0,-12,-5
18:55:53.480288,-9,-5,0,9,12,-1,-7,-13
18:55:53.488285,-3,-5,0,-3,1,-2,8,8
18:55:53.503276,1,0,-1,-3,0,-3,-5,-5
18:55:53.503276,-6,-2,-4,1,-1,3,6,-3
18:55:53.525262,6,-3,-4,-5,-4,-7,-10,-7
18:55:53.526261,-2,-1,-1,-2,-20,0,2,3
18:55:53.540251,-4,-4,-1,5,11,0,-3,-1
18:55:53.548248,3,0,0,2,1,1,-2,-2
18:55:53.563238,-8,-3,-4,-10,-48,-7,-2,6
18:55:53.563238,5,5,5,6,17,6,-8,6
18:55:53.585224,6,1,0,-1,-3,-3,11,6
18:55:53.586224,-4,-1,1,-1,-1,0,4,-3
18:55:53.600212,11,3,1,0,-4,-2,3,9
18:55:53.608208,-1,0,-5,-1,-1,0,2,-2
18:55:53.623202,-1,1,1,0,-3,2,4,-1
18:55:53.624201,2,-1,1,-2,2,1,-2,0
18:55:53.645184,-5,-4,-5,-10,-46,-3,-11,-15
18:55:53.646187,-7,-3,-4,2,6,4,1,-8
18:55:53.660176,11,7,4,9,2,-5,10,10
18:55:53.668173,-3,-3,-5,-6,-4,-6,7,-3
18:55:53.683164,1,-6,-1,-23,-9,3,-4,6
18:55:53.683164,-4,2,-1,-2,-1,8,-2,-3
18:55:53.705160,-2,1,-2,-2,-3,-1,3,1
18:55:53.706147,-4,-1,-1,-1,-2,-1,1,-2
18:55:53.720139,-3,3,0,-4,-2,-4,7,0
18:55:53.728134,-3,1,0,1,2,2,9,5
18:55:53.743127,5,3,-4,-5,-3,-4,2,3
18:55:53.744126,-7,-4,-2,1,2,2,-1,-4
18:55:53.766112,-5,0,-3,-15,-5,-6,-4,-5
18:55:53.766112,-4,-2,-2,3,6,1,-4,-2
18:55:53.781104,-5,-7,-3,-3,-3,-4,1,0
18:55:53.788099,0,-3,1,-3,-4,-1,0,-1
18:55:53.803090,0,3,0,-1,1,0,-3,-3
18:55:53.803090,-2,-2,-3,3,-2,0,-1,-2
18:55:53.833071,0,1,-3,1,-2,-3,-2,0
18:55:53.834070,0,-3,2,-2,0,2,-1,0
18:55:53.840067,0,-2,3,2,-3,-1,1,0
18:55:53.848062,1,-2,-4,2,3,2,-1,2
18:55:53.863053,3,3,3,4,2,-1,0,2
18:55:53.864051,3,-1,2,-1,0,3,-2,-4
18:55:53.893034,-10,-3,0,0,-1,-1,0,-2
18:55:53.894031,-5,-3,-2,-2,0,-2,-4,-3
18:55:53.901027,-1,-3,-3,0,-3,-5,-2,1
18:55:53.908025,-5,-4,-1,0,0,1,-4,-7
18:55:53.923015,-2,-1,-4,0,-2,-3,1,-2
18:55:53.924014,-2,-1,-2,-2,0,-3,-1,-1
18:55:53.944999,-1,-1,-2,-4,2,-1,-4,-3
18:55:53.945999,-2,-4,2,-4,-3,1,-2,1
18:55:53.967987,-1,-2,-1,4,-5,-4,-1,-6
18:55:53.968983,-3,-4,-1,-2,0,0,0,-4
18:55:53.982978,-1,-4,-2,1,-3,1,-1,0
18:55:53.983974,0,0,1,-3,-4,-5,1,-7
18:55:54.005961,0,-4,2,1,3,1,0,4
18:55:54.005961,-2,-2,-3,-4,0,0,0,0
18:55:54.027949,-1,1,0,-2,-8,-5,-2,-1
18:55:54.028948,-1,0,0,1,3,0,-2,-1
18:55:54.042941,-2,-3,1,2,1,-1,1,5
18:55:54.043940,-1,3,0,-3,-4,0,12,-3
18:55:54.065924,-6,-4,1,0,-1,-3,-2,-5
18:55:54.065924,-4,-3,-4,-4,-3,-4,-2,-10
18:55:54.087913,-1,0,0,3,1,-1,4,4
18:55:54.088910,4,0,-2,-1,-4,1,-2,1
18:55:54.102904,-1,-1,-4,-1,-1,-3,0,0
18:55:54.103901,0,-2,-3,-1,-3,2,6,0
18:55:54.125887,-11,-8,0,1,0,-3,-9,-6
18:55:54.125887,6,1,-2,1,2,10,4,16
18:55:54.147876,-5,-5,-3,-3,0,6,-13,-6
18:55:54.148875,-13,-4,0,5,0,-6,23,-32
18:55:54.162867,3,2,-2,-5,-7,0,0,7
18:55:54.163863,-4,-2,-4,-1,-3,-4,-7,-33
18:55:54.185851,3,1,5,2,4,2,3,1
18:55:54.185851,-2,-2,1,1,2,-3,2,-6
18:55:54.207838,-3,-5,-1,-1,0,1,-3,-4
18:55:54.208837,-11,-1,1,0,-2,-5,0,-4
18:55:54.222829,-5,-5,-1,-1,-4,-9,-7,-5
18:55:54.223827,0,2,-1,0,-1,0,6,5
18:55:54.245812,6,1,0,0,0,6,10,9
18:55:54.245812,-1,0,-2,-1,-2,2,-5,-1
18:55:54.267801,-5,-2,-2,-2,-3,-1,-11,-9
18:55:54.268798,-2,-3,-3,0,-3,-4,0,-3
18:55:54.282791,-4,-4,-1,-2,-4,-2,-8,-9
18:55:54.290787,3,-2,-4,-1,2,8,-3,-2
18:55:54.305775,4,2,1,1,0,-3,-5,8
18:55:54.305775,-5,-1,-3,0,0,-4,0,4
18:55:54.327763,4,2,-2,-1,-3,-4,-6,-8
18:55:54.328761,1,0,-3,-4,-5,-5,2,1
18:55:54.342753,-3,-1,-1,-1,0,0,-3,-3
18:55:54.350750,1,-1,0,-1,1,-2,-14,-5
18:55:54.365740,12,5,-1,2,-3,1,21,22
18:55:54.365740,-2,-3,-3,-1,-2,-2,-1,-3
18:55:54.387727,-6,-5,-2,2,-1,-5,-4,-9
18:55:54.388726,-1,-2,-4,-4,2,-3,-22,-5
18:55:54.402715,1,1,0,-3,0,0,4,5
18:55:54.417706,0,-4,0,-2,-2,-3,-4,-4
18:55:54.425703,-3,-1,-4,-3,-1,0,-5,-4
18:55:54.425703,-4,-3,-3,-3,-2,-3,3,-5
18:55:54.448688,-2,-4,-1,0,-1,-1,-3,-2
18:55:54.448688,-4,-6,-1,0,-2,-2,-1,-2
18:55:54.462677,-3,-3,-1,-2,0,0,-3,-4
18:55:54.470675,4,0,1,-1,3,3,3,5
18:55:54.485668,2,1,-3,0,0,0,-1,4
18:55:54.485668,4,1,-1,-3,-1,0,-2,-1
18:55:54.507651,0,1,-1,0,0,-1,1,3
18:55:54.508652,-2,-5,-2,-4,1,-5,-2,-4
18:55:54.522643,3,-3,-1,1,-4,0,-2,-3
18:55:54.530638,6,0,-3,-3,-3,-3,-2,2
18:55:54.545629,-5,-9,-4,-1,1,-2,-2,-2
18:55:54.546626,-2,2,0,-1,1,-1,2,4
18:55:54.567617,-5,-5,-4,-2,-2,4,4,7
18:55:54.568615,-11,-3,-1,0,0,-2,-2,-10
18:55:54.583605,1,-1,2,-2,2,-3,-4,1
18:55:54.590601,-1,0,2,3,0,-1,1,-3
18:55:54.605589,-1,-4,-3,0,-1,6,0,-7
18:55:54.606591,0,4,0,0,-5,-11,3,-2
18:55:54.627575,5,2,-1,-1,1,1,3,-3
18:55:54.628575,0,2,4,4,6,3,18,1
18:55:54.643566,3,5,2,3,0,3,-3,-3
18:55:54.650564,-4,-1,-2,0,-2,-3,-4,-3
18:55:54.665555,-5,0,0,-3,-2,0,-2,-1
18:55:54.666553,0,-1,-2,0,-1,1,0,-3
18:55:54.688537,7,4,-3,-2,2,-1,3,6
18:55:54.688537,3,0,1,-3,0,1,0,-4
18:55:54.703528,-5,-3,-2,-3,-2,1,-12,-3
18:55:54.710527,-4,-2,0,-1,0,0,1,-3
18:55:54.733509,8,2,1,0,2,2,8,8
18:55:54.733509,6,0,-2,0,-3,4,-12,3
18:55:54.748503,-1,-4,-3,-1,-1,-2,4,-1
18:55:54.748503,-1,-3,2,-1,-6,-5,2,-5
18:55:54.763492,8,1,3,-2,1,-1,7,0
18:55:54.770490,-6,-1,-3,1,0,-5,1,-5
18:55:54.785480,-4,-2,1,-2,-3,-1,-4,1
18:55:54.786480,-3,0,-1,-3,-1,1,-1,-6
18:55:54.808463,1,1,-1,2,-1,-2,1,0
18:55:54.808463,0,-5,0,0,0,-3,-1,5
18:55:54.823453,6,2,2,2,3,4,-10,7
18:55:54.830449,-3,-4,-3,-2,-7,-2,-6,2
18:55:54.845443,4,-3,0,1,-2,6,8,1
18:55:54.846440,-3,-1,-3,-1,-1,-2,2,-2
18:55:54.868425,20,3,1,0,-1,-2,0,17
18:55:54.868425,-4,-4,0,-1,-3,-3,-1,-1
18:55:54.883416,3,2,-2,1,0,2,2,0
18:55:54.890415,-3,0,-4,-3,-2,0,-7,-4
18:55:54.905406,-8,-2,-1,0,-2,-3,7,3
18:55:54.913400,7,-2,-3,-6,-3,1,-7,-1
18:55:54.935387,0,-3,3,2,4,3,4,1
18:55:54.936387,-5,-3,-1,-2,1,-1,5,-2
18:55:54.950378,-4,4,0,1,-2,-3,-4,-10
18:55:54.951377,-1,0,-1,-1,-6,-7,-8,-2
18:55:54.965369,-3,0,-1,-1,-1,-2,5,-3
18:55:54.966365,-6,-4,-2,1,-1,0,-2,0
18:55:54.988353,-5,0,1,0,0,4,10,5
18:55:54.989353,-5,-4,-2,-1,-2,-2,-3,0
18:55:55.010340,-8,-2,0,-3,-3,-1,-1,-5
18:55:55.011338,-3,1,2,0,1,3,7,8
18:55:55.025332,-4,-3,-1,2,-4,-4,-5,-7
18:55:55.026331,0,1,0,2,1,2,7,10
18:55:55.048314,2,0,-2,-1,-1,-1,22,2
18:55:55.048314,-1,1,3,2,2,-1,-10,-9
18:55:55.070304,-2,-1,-4,-3,-1,-6,4,-1
18:55:55.071300,7,4,0,2,0,-1,4,5
18:55:55.085294,3,6,1,2,3,-3,-3,1
18:55:55.086291,-5,-1,0,-1,0,4,3,0
18:55:55.108277,6,1,-5,-3,-6,-5,1,6
18:55:55.108277,-8,-1,-1,1,-2,-2,-15,2
18:55:55.130264,4,1,1,1,0,3,2,6
18:55:55.131263,-2,-1,0,1,-1,-1,3,0
18:55:55.145257,-4,1,0,-3,2,3,0,0
18:55:55.146256,1,-2,-2,1,2,-1,-1,0
18:55:55.168240,4,3,-4,-2,-1,1,18,4
18:55:55.168240,0,-1,1,2,2,2,6,7
18:55:55.190229,-3,-2,0,-2,-2,1,2,-4
18:55:55.191228,-5,-5,-2,-4,1,0,-1,-5
18:55:55.205217,-3,-3,-1,-3,-1,-4,4,2
18:55:55.213215,5,4,-1,0,1,-1,3,-4
18:55:55.228206,-1,-2,0,-6,-3,-2,-4,-4
18:55:55.229206,-2,-2,-2,-2,0,-1,-1,2
18:55:55.250192,4,1,-1,-3,0,-2,-1,0
18:55:55.251189,-7,-1,-1,-4,2,-1,0,-3
18:55:55.266179,-2,1,0,-2,-2,-4,1,2
18:55:55.273178,-2,-6,-3,1,-1,0,-12,1
18:55:55.288169,0,0,0,-2,-4,-1,4,3
18:55:55.289169,-1,-2,-1,2,0,1,20,3
18:55:55.310153,-3,-7,1,-1,-1,2,1,-4
18:55:55.311152,-2,0,1,-1,-1,1,-1,-10
18:55:55.325143,-11,-4,-3,-2,2,-5,-5,1
18:55:55.333140,-4,-5,-4,-4,-1,0,1,-6
18:55:55.348132,-1,2,1,0,-4,1,-2,4
18:55:55.349131,-3,-1,-1,-1,1,1,1,0
18:55:55.370116,-3,-4,-4,0,-2,-5,0,-2
18:55:55.371117,-6,-1,3,0,1,3,-3,-5
18:55:55.385106,-1,-1,-1,2,-3,2,-6,1
18:55:55.393104,0,-4,1,0,-1,1,-8,3
18:55:55.408094,-2,-2,-2,2,-1,-3,1,-6
18:55:55.409092,3,2,1,-4,-5,-5,-32,-8
18:55:55.430077,-5,-1,2,1,1,-4,4,4
18:55:55.431077,-5,-3,-1,0,0,-2,1,-3
18:55:55.446071,-3,-2,-2,0,0,2,-1,1
18:55:55.453066,-3,-1,-3,-4,1,-1,-3,-5
18:55:55.468057,0,-1,-2,0,0,3,2,3
18:55:55.468057,-3,-3,-4,-2,-1,4,0,-2
18:55:55.490041,-1,-4,-5,-4,-4,-11,-8,14
18:55:55.491043,10,2,-3,-1,-4,-3,7,16
18:55:55.513026,-6,2,0,1,2,8,4,1
18:55:55.514025,2,-4,-3,-2,-1,-2,6,12
18:55:55.528017,-5,-3,0,0,-1,1,0,-2
18:55:55.529020,11,0,-1,-1,-3,1,0,6
18:55:55.550006,-3,-1,0,0,2,-3,-2,-5
18:55:55.551002,1,2,1,0,1,1,-10,0
18:55:55.572993,4,-4,0,-1,0,-3,5,-2
18:55:55.573992,0,-1,1,-3,-5,-11,-5,4
18:55:55.587980,7,3,-3,-1,-4,-6,10,-4
18:55:55.588979,-8,-2,3,-3,-3,1,-2,-11
18:55:55.609966,-5,-2,1,1,-6,-3,-2,-3
18:55:55.611967,-3,2,-1,1,0,2,1,2
18:55:55.632951,-4,-2,-1,-1,-1,-1,6,-6
18:55:55.633955,-5,-4,-1,2,-3,-1,-6,-8
18:55:55.647946,-2,-2,-1,0,-2,-5,-1,3
18:55:55.648945,-5,-3,0,0,-4,4,-2,0
18:55:55.670931,-2,-2,-3,1,1,3,6,0
18:55:55.670931,-5,-1,0,0,-3,-5,-4,4
18:55:55.692917,-3,2,0,0,-1,-2,3,-4
18:55:55.693916,-1,-1,0,-2,-1,-4,-2,-5
18:55:55.707908,8,5,-2,1,-1,2,-4,9
18:55:55.708906,1,-4,1,-1,1,5,-1,-2
18:55:55.730892,-4,-4,-3,0,-1,-2,-3,-5
18:55:55.730892,-5,-2,0,2,-2,-4,-5,-6
18:55:55.760873,-2,6,0,0,-3,0,-4,0
18:55:55.760873,-8,-2,0,0,-1,0,11,-1
18:55:55.767871,-2,-1,-2,-1,2,-2,-2,-3
18:55:55.768870,-2,-2,-1,2,-1,1,5,-4
18:55:55.790854,0,1,-1,-1,1,0,2,2
18:55:55.790854,-1,-1,0,-2,-1,0,0,-4
18:55:55.812843,0,-3,0,-3,0,1,-1,-9
18:55:55.813839,-1,1,1,1,-3,0,-18,-5
18:55:55.827833,-10,-8,-4,-4,-5,-4,9,-13
18:55:55.828831,13,5,0,0,0,1,3,13
18:55:55.850817,2,2,-3,-3,-3,-2,-5,1
18:55:55.850817,13,2,0,-3,-3,1,1,-1
18:55:55.872803,-2,-1,2,2,2,-2,3,2
18:55:55.880801,-3,-1,-2,-2,-3,-4,-4,-7
18:55:55.887797,3,0,3,1,3,4,4,0
18:55:55.888793,14,2,1,-2,1,3,0,27
18:55:55.910779,-1,-3,-1,-3,-3,-3,2,-2
18:55:55.910779,0,0,-3,-6,-6,-4,-17,6
18:55:55.932766,-1,-1,3,-2,-2,1,5,3
18:55:55.933770,3,0,0,2,-1,3,1,-1
18:55:55.947760,-9,-6,-4,-4,-6,-10,-9,-6
18:55:55.948756,-2,0,-1,-1,0,0,-14,-3
18:55:55.970743,-4,-2,-1,2,-1,-1,-1,-1
18:55:55.970743,18,5,1,0,1,7,14,19
18:55:55.992731,-3,-1,0,-2,-2,-3,-5,-3
18:55:55.993728,-1,0,-2,-1,0,-4,-5,-3
18:55:56.007722,5,1,3,-2,1,1,-9,2
18:55:56.008719,-7,-7,-3,-5,-3,1,-5,1
18:55:56.037703,-1,0,-4,-4,-2,0,0,-1
18:55:56.045696,0,-1,-2,-1,-1,1,3,-1
18:55:56.052694,-2,-4,2,-4,-6,-1,1,-5
18:55:56.053693,-9,-2,-3,0,-1,0,1,-5
18:55:56.067685,18,2,-1,0,3,1,6,18
18:55:56.075680,-3,-3,0,-3,-3,-3,-1,-8
18:55:56.090671,-14,-5,-2,-3,2,6,0,5
18:55:56.090671,-1,-3,-3,-2,-7,-8,-4,-6
18:55:56.112656,-2,2,-1,0,2,1,2,5
18:55:56.113654,2,1,-3,-1,-3,0,-1,-1
18:55:56.128644,-1,0,0,-1,-2,1,2,4
18:55:56.128644,1,-1,-1,-2,-1,3,-26,-6
18:55:56.150631,-4,-4,-3,1,-4,-1,5,-3
18:55:56.151630,4,4,-1,1,0,-4,7,10
18:55:56.173617,10,2,0,-2,-2,10,12,16
18:55:56.173617,-5,-3,1,1,0,-1,2,-1
