timestamp,emg1,emg2,emg3,emg4,emg5,emg6,emg7,emg8
16:22:11.784699,-1,-1,-2,-3,0,0,-1,-4
16:22:11.798686,-2,1,-2,0,-1,-1,-3,-1
16:22:11.805684,-2,-2,-2,-4,-3,-1,1,-1
16:22:11.814677,1,-2,1,-4,-4,-2,0,-4
16:22:11.821672,-3,-1,-1,-1,0,0,1,3
16:22:11.836662,3,-1,-1,0,-2,-3,-2,-2
16:22:11.842668,0,-1,0,3,6,-3,-2,0
16:22:11.857651,-2,1,-2,-1,-6,0,0,0
16:22:11.858648,-1,-1,0,-1,4,0,1,1
16:22:11.873640,1,-3,1,2,-2,-3,1,2
16:22:11.880634,-3,-2,-2,0,-1,0,-1,-2
16:22:11.895625,-1,-2,0,-3,-1,-5,3,0
16:22:11.903620,-2,2,1,-3,-1,1,-3,3
16:22:11.925608,-6,-2,1,-8,-6,0,0,-1
16:22:11.926606,1,3,0,-1,0,0,1,0
16:22:11.933602,-1,-2,-3,0,3,1,-1,-1
16:22:11.940620,0,2,0,-3,2,-4,-2,-2
16:22:11.955588,-1,0,0,2,2,2,0,-2
16:22:11.963587,-1,-3,-3,0,-3,-3,0,-2
16:22:11.978575,0,0,-3,1,-1,-1,-1,1
16:22:11.978575,-4,-2,1,-3,0,0,3,-2
16:22:11.993568,2,1,0,-1,4,-3,2,-1
16:22:12.001560,-4,-1,-1,0,-1,0,0,-4
16:22:12.015551,1,-2,-1,-1,-2,-1,0,-1
16:22:12.023550,-3,-1,0,1,-2,-1,-4,-1
16:22:12.038537,2,-3,-3,-2,-1,0,2,1
16:22:12.038537,-1,-3,0,-1,-2,-1,-1,-4
16:22:12.060524,2,1,4,1,2,4,1,2
16:22:12.061526,-3,-1,-3,-1,1,-4,1,0
16:22:12.076514,-4,0,-3,-1,0,1,-1,-4
16:22:12.083512,-3,-1,0,0,1,-2,1,-3
16:22:12.098505,0,-2,1,0,-5,0,-4,0
16:22:12.099500,-1,1,1,0,0,-1,-2,1
16:22:12.113494,-2,-1,1,-2,0,-2,0,1
16:22:12.128485,-4,-4,-1,-4,3,-4,-5,-3
16:22:12.143476,-2,1,-2,2,-7,-4,1,0
16:22:12.144476,1,-1,-1,0,-7,-3,-3,1
16:22:12.158463,0,2,3,1,0,-2,-2,0
16:22:12.158463,-1,-3,-3,-1,-1,-2,0,-1
16:22:12.173457,0,-2,-3,0,5,5,1,-1
16:22:12.181454,-1,0,2,1,3,-2,-1,2
16:22:12.196441,2,-2,-1,1,-1,0,-1,-3
16:22:12.203439,-2,0,-1,0,-8,-2,-1,1
16:22:12.218426,-1,-1,0,-2,0,0,-1,-2
16:22:12.226422,0,1,-2,-3,-5,0,-3,-4
16:22:12.233420,1,-1,1,-1,1,0,2,-1
16:22:12.241412,3,-2,0,1,4,1,-1,-1
16:22:12.256407,-3,-1,0,5,-2,-2,0,2
16:22:12.263402,-2,0,1,-2,2,-3,-1,-1
16:22:12.278393,-3,-1,-1,-1,-1,1,-1,1
16:22:12.279391,-1,0,-1,4,-3,1,1,0
16:22:12.293384,1,1,2,2,0,0,2,3
16:22:12.301375,-3,1,0,0,1,-1,-1,-4
16:22:12.316367,1,1,3,-2,-13,1,2,-2
16:22:12.323365,0,-1,0,-3,2,-2,-3,-3
16:22:12.338355,1,-3,-1,-2,-3,1,1,1
16:22:12.346352,-1,0,-1,-2,1,0,2,-2
16:22:12.353347,0,-1,-1,-1,0,-1,-3,0
16:22:12.368336,2,-1,-2,-2,-3,1,-1,-3
16:22:12.376331,-1,-1,-4,1,1,-5,-6,-4
16:22:12.384325,1,-3,2,-2,1,-1,0,-3
16:22:12.398319,-1,0,1,1,6,2,-2,1
16:22:12.399315,0,-3,1,-2,-9,-3,-1,-4
16:22:12.421302,0,-1,3,2,1,0,-4,-1
16:22:12.421302,0,2,-2,-2,0,3,-1,0
16:22:12.436294,-1,0,-2,-1,4,0,0,-3
16:22:12.443291,-1,0,-2,-1,-10,-3,-2,-2
16:22:12.458282,3,-2,1,2,3,-3,-1,1
16:22:12.459278,0,-3,1,-2,-5,-6,-1,-2
16:22:12.481265,0,-1,0,-1,0,-2,1,1
16:22:12.481265,0,-3,2,2,2,-2,1,-3
16:22:12.496259,0,0,1,-1,-1,-1,0,0
16:22:12.503253,-2,-1,0,0,2,1,-1,-1
16:22:12.518244,-5,-3,-2,-3,-4,1,1,2
16:22:12.526237,-2,-2,0,1,1,-2,-5,2
16:22:12.541231,1,-1,3,0,1,1,2,-1
16:22:12.541231,3,2,3,0,5,10,4,4
16:22:12.556222,1,3,1,-5,-4,1,-3,0
16:22:12.571213,2,1,1,-2,-4,2,1,0
16:22:12.578208,-3,-2,-2,0,5,0,-3,0
16:22:12.586203,2,0,-4,-3,-7,-3,1,-1
16:22:12.601191,0,-3,0,-1,2,-1,-5,-1
16:22:12.602191,-1,-5,-2,0,2,0,-3,0
16:22:12.617182,1,-2,-1,-2,-1,-2,-1,1
16:22:12.623177,2,-1,0,-1,0,-3,-1,2
16:22:12.646165,-1,-3,-1,-3,-3,-3,-2,-4
16:22:12.653159,-4,-1,-2,-3,0,-6,-2,-4
16:22:12.660156,-2,-1,-2,0,3,1,1,-4
16:22:12.668152,0,-3,-3,-4,-5,-2,-6,-5
16:22:12.676150,-2,-2,0,0,-3,-2,-3,0
16:22:12.684143,-2,-1,0,-1,-3,-5,2,2
16:22:12.698133,0,-1,0,0,3,1,-1,0
16:22:12.706130,-2,-1,-2,0,-4,-5,-1,-1
16:22:12.728116,-3,-1,-2,-1,-6,-7,-3,-1
16:22:12.729115,1,-4,0,-1,-1,0,-2,-1
16:22:12.736111,1,-2,1,0,2,-1,-1,-3
16:22:12.744103,-3,-1,0,-1,-6,-1,-1,-1
16:22:12.759094,-2,-5,-2,-6,2,-4,-1,-4
16:22:12.766090,0,-1,-3,1,2,2,-2,1
16:22:12.781080,-1,0,-1,2,0,0,0,-3
16:22:12.781080,1,2,0,-4,1,1,0,-1
16:22:12.796074,2,2,3,3,3,0,4,-1
16:22:12.804066,1,-1,-4,-3,-3,-1,-2,-1
16:22:12.819058,-1,0,0,-1,-5,-7,-4,0
16:22:12.826056,-2,-1,1,-2,-4,-1,-1,-2
16:22:12.841044,0,0,-1,1,4,3,2,-3
16:22:12.841044,0,-2,-3,4,-3,1,-3,0
16:22:12.856037,-4,0,-1,-1,3,0,-2,0
16:22:12.863030,-3,-1,0,-1,0,-1,-2,2
16:22:12.879022,-1,-1,-3,-2,0,2,-4,3
16:22:12.894014,0,-1,-2,-3,1,0,1,-1
16:22:12.901006,-1,0,1,1,3,5,0,1
16:22:12.902008,-5,-4,-2,0,-7,-1,0,-4
16:22:12.915999,-2,-2,0,-1,-3,1,-2,-5
16:22:12.923996,-1,-1,0,-4,-10,-1,0,-3
16:22:12.938983,0,-4,-5,-3,-3,2,0,0
16:22:12.945982,0,1,-2,1,-2,1,0,0
16:22:12.960973,-1,-3,-1,-3,2,-3,-2,-4
16:22:12.960973,-2,-2,-3,-2,-1,-3,-2,2
16:22:12.975964,3,-3,0,-1,4,5,0,0
16:22:12.983956,0,0,0,-2,-1,-2,0,1
16:22:12.998946,-3,-2,-4,-3,-4,-4,-4,-3
16:22:13.005945,0,-3,0,-6,-7,3,-3,-4
16:22:13.020936,0,-2,-2,1,3,-1,0,1
16:22:13.021932,-1,-1,1,-1,-11,-3,-2,0
16:22:13.035927,-4,-1,-1,1,2,-1,-1,2
16:22:13.042921,1,2,0,-3,1,1,4,0
16:22:13.058913,1,2,1,0,0,2,2,2
16:22:13.065907,-1,0,3,2,-4,2,0,3
16:22:13.080899,0,-1,-1,0,0,0,-1,0
16:22:13.081898,-2,1,-2,0,-1,-3,0,-5
16:22:13.095890,0,-2,-2,0,-7,-1,-1,-1
16:22:13.103885,-3,-2,0,-3,1,-4,-3,1
16:22:13.118872,-1,-1,-3,-1,-3,-2,-2,-3
16:22:13.125871,0,3,4,2,5,-1,-1,2
16:22:13.140861,-2,-6,-3,-1,-1,-2,-3,-2
16:22:13.141858,-1,0,-1,-2,3,-1,-1,0
16:22:13.155852,0,-2,-2,-2,-1,-4,-2,-1
16:22:13.170840,-1,-2,1,-1,-6,-3,-1,0
16:22:13.178836,-2,-2,-3,-1,0,-1,-4,0
16:22:13.185833,1,0,-2,-4,-1,-2,2,1
16:22:13.200825,2,0,-2,-1,0,-2,-2,1
16:22:13.207820,-2,1,1,0,-8,-3,0,0
16:22:13.216815,-1,2,2,1,3,6,3,0
16:22:13.222808,-2,0,-1,-4,0,-1,-3,-4
16:22:13.238798,-3,-3,-2,-2,1,1,1,1
16:22:13.253790,-1,0,-1,2,3,-1,-3,-1
16:22:13.260786,0,0,-3,-3,-4,-5,0,2
16:22:13.260786,-3,-5,-2,-1,-1,2,-3,0
16:22:13.275777,1,-3,0,-1,-1,0,-3,2
16:22:13.282773,0,1,-3,0,2,0,-3,-3
16:22:13.297764,-1,1,1,1,2,0,-2,-3
16:22:13.305758,0,0,-1,-3,-2,2,-1,-2
16:22:13.320751,0,1,1,1,2,1,-1,2
16:22:13.328743,-2,-2,0,-1,-1,-2,1,-3
16:22:13.335741,-1,-1,-1,1,0,-2,2,-1
16:22:13.343737,1,3,-1,4,0,-3,-1,4
16:22:13.358728,0,0,-1,1,8,0,-1,-1
16:22:13.365723,-1,0,-2,1,-4,-3,-3,-4
16:22:13.380714,-1,-3,0,0,2,-2,0,-4
16:22:13.381713,-1,-3,-3,-5,-4,-1,-2,-4
16:22:13.395704,-1,-2,-2,-1,2,-5,-2,-1
16:22:13.403700,1,-3,1,-3,-1,2,-2,-3
16:22:13.418690,-1,2,0,0,-8,1,0,0
16:22:13.425683,-2,-1,0,-1,1,-3,-4,-3
16:22:13.441677,0,-2,-1,-2,-2,-3,-2,-3
16:22:13.448670,2,0,-1,-3,-14,-1,2,-1
16:22:13.478653,-1,-1,-3,-2,4,-2,1,0
16:22:13.478653,-4,0,-1,0,1,1,-2,-5
16:22:13.479652,1,2,-2,-3,0,-3,1,1
16:22:13.485647,1,-2,0,-5,0,1,-1,-3
16:22:13.500637,0,2,0,-4,-1,-2,1,1
16:22:13.508635,-2,-2,-1,1,2,1,-2,-1
16:22:13.523623,1,-2,-2,1,1,0,-1,-1
16:22:13.524622,-1,0,-3,-2,-3,-2,-2,-2
16:22:13.538617,-1,-1,1,-3,4,-2,0,2
16:22:13.545610,1,1,-1,-2,-3,-7,1,-1
16:22:13.561603,0,-3,-1,2,2,2,-1,-2
16:22:13.568597,-3,-4,-3,-6,-5,-3,-2,-2
16:22:13.583586,-1,0,-2,1,-1,-5,-3,-1
16:22:13.583586,0,1,1,0,-3,-5,-1,-2
16:22:13.598580,0,-1,-3,2,-1,-3,-1,1
16:22:13.605573,-1,-3,1,-3,-1,-5,-1,0
16:22:13.622563,2,-2,0,-2,-2,-2,0,-1
16:22:13.628562,-2,0,1,2,-5,-4,1,0
16:22:13.643550,-4,0,-5,-5,-3,0,-2,0
16:22:13.643550,1,0,0,0,2,3,-3,0
16:22:13.658543,-2,-4,0,-2,1,-2,-4,-3
16:22:13.666542,1,-1,2,-2,-4,-1,0,0
16:22:13.681526,0,1,-3,-3,0,-3,-5,-2
16:22:13.695518,1,0,0,1,-3,-1,-1,1
16:22:13.711508,-1,-3,-2,-2,-4,-4,-1,0
16:22:13.711508,-1,-2,-4,1,3,2,1,-4
16:22:13.718506,2,-2,0,1,2,2,0,2
16:22:13.725502,-1,1,-2,-3,-6,1,-1,-1
16:22:13.741489,1,1,0,0,2,-3,1,2
16:22:13.748485,0,0,1,-1,-2,4,1,-4
16:22:13.763479,-3,-2,0,-1,2,4,-2,2
16:22:13.763479,0,-1,-2,2,-2,-1,0,-1
16:22:13.778469,-2,-1,-3,0,1,1,0,0
16:22:13.786463,1,-2,-2,-1,-1,-2,-1,0
16:22:13.801453,0,-1,-4,0,3,0,-1,-5
16:22:13.808448,-1,-4,-6,-4,-1,-1,-2,-6
16:22:13.823439,-3,1,-1,2,-1,-1,-2,1
16:22:13.823439,0,-4,-1,-2,-1,-4,-2,-3
16:22:13.838430,-1,0,-3,1,0,-1,-2,-1
16:22:13.845428,-1,0,-3,0,0,1,-2,-3
16:22:13.868419,-4,-3,-1,-2,0,-3,-2,-3
16:22:13.868419,-2,0,0,-3,-2,-2,-2,1
16:22:13.883404,2,5,4,1,-3,-6,2,1
16:22:13.884403,-1,-1,-3,-1,1,-3,-1,-3
16:22:13.898395,-2,2,0,1,5,7,4,2
16:22:13.906388,-1,-1,1,4,1,-6,1,-2
16:22:13.921378,1,-2,1,0,-5,-6,1,1
16:22:13.928377,-1,-2,-2,-2,-2,-1,-3,2
16:22:13.943368,0,-2,-1,0,-3,0,-2,-2
16:22:13.944367,-4,1,-4,-2,-1,0,-2,-4
16:22:13.958359,1,2,1,0,-3,1,2,1
16:22:13.966351,-1,-1,-1,2,2,1,0,-5
16:22:13.981344,0,3,-4,-4,-5,-6,-3,-1
16:22:13.988339,-2,-1,-5,-2,0,-1,-3,-1
16:22:14.003331,-4,-2,-3,-6,-4,-3,1,-2
16:22:14.004330,0,2,1,-1,-2,1,0,1
16:22:14.018318,-2,2,-2,-2,-3,-2,0,-3
16:22:14.026316,-3,1,0,1,-2,1,1,-3
16:22:14.041307,0,-2,-1,-3,-3,-2,0,-1
16:22:14.048303,-1,1,-1,-1,3,2,-1,0
16:22:14.063291,-2,-3,-3,0,7,-3,0,-2
16:22:14.063291,1,-2,0,0,-2,-2,-3,1
16:22:14.086277,0,1,1,-1,2,1,-3,-3
16:22:14.086277,-1,-5,-3,-2,-4,-4,-2,-2
16:22:14.101267,-3,-3,-2,-3,-7,-3,0,-2
16:22:14.108263,-2,-1,1,-5,-9,-4,-3,0
16:22:14.155234,0,0,-1,1,-3,-2,-1,-2
16:22:14.155234,1,0,0,1,-1,2,1,0
16:22:14.157233,-1,-1,-3,-2,3,0,-3,-2
16:22:14.159232,0,0,0,-1,-4,-4,-1,-3
16:22:14.165227,-4,-1,-2,0,-7,-2,1,-1
16:22:14.170224,3,-1,3,0,7,5,-3,-1
16:22:14.185223,3,3,-1,-2,-2,0,-1,-1
16:22:14.186226,-1,0,0,1,4,-1,-1,0
16:22:14.198207,0,-1,-1,1,3,-3,-1,-3
16:22:14.206204,-2,0,-1,-4,-5,-4,0,1
16:22:14.228189,0,0,0,-2,-2,-2,-2,-3
16:22:14.228189,-2,-3,-2,-3,-2,-1,-1,2
16:22:14.243180,-2,0,-2,1,-6,3,-1,-4
16:22:14.243180,-1,-3,-2,0,2,-2,0,0
16:22:14.258170,-1,1,-2,-1,3,-1,-1,-5
16:22:14.265167,0,-1,1,1,-2,-3,1,-1
16:22:14.281156,-3,-3,-5,-4,0,3,-1,2
16:22:14.288153,2,2,-1,-1,-7,0,-1,1
16:22:14.303144,0,1,-3,0,-1,1,-1,-1
16:22:14.303144,1,0,-1,-2,-6,-5,-2,0
16:22:14.318134,-2,-1,-1,2,5,-1,-1,-3
16:22:14.325132,-1,0,-3,-3,1,0,-3,0
16:22:14.341130,-1,0,-2,-1,0,-3,-2,1
16:22:14.348115,0,-1,-1,1,4,2,3,-2
16:22:14.363107,0,-2,-3,-3,-13,-1,-2,1
16:22:14.363107,0,-2,-1,3,-1,1,1,0
16:22:14.393088,-1,-1,-2,-2,0,-1,2,-3
16:22:14.393088,0,0,1,-3,-1,-1,0,-1
16:22:14.401083,0,0,0,1,3,1,-1,1
16:22:14.408085,-2,-1,-1,-3,-9,-8,-3,-1
16:22:14.423069,-1,-5,-5,-1,1,0,-2,-1
16:22:14.431065,2,-1,-1,1,1,5,1,2
16:22:14.445059,-5,-3,-2,-2,0,0,-1,-3
16:22:14.446056,-1,0,1,2,1,0,1,0
16:22:14.461047,-3,-1,-4,0,-1,-4,-2,2
16:22:14.468042,0,-1,3,1,-5,-3,-5,0
16:22:14.483033,-3,-2,-1,2,3,0,-3,0
16:22:14.491027,-2,-2,-3,0,-4,1,-1,1
16:22:14.506019,0,-1,-4,1,0,1,0,2
16:22:14.506019,-2,0,2,-2,-6,1,-2,-2
16:22:14.521010,0,-2,1,5,-4,-5,-3,0
16:22:14.528005,0,2,-1,0,2,-3,-2,0
16:22:14.542995,-2,-2,-1,-1,-2,1,1,1
16:22:14.550990,1,0,1,3,-1,-2,1,-1
16:22:14.565981,-5,-4,0,-2,-10,0,0,-1
16:22:14.566981,-2,-2,-2,2,0,-2,-2,-2
16:22:14.580973,0,1,2,-3,0,0,2,-3
16:22:14.587968,-1,-2,-2,1,0,-3,-3,-2
16:22:14.602958,-1,1,-1,0,-6,1,-3,-2
16:22:14.610954,-3,0,-2,0,-4,-2,-2,-1
16:22:14.625945,-1,-2,0,-2,1,-1,-1,-1
16:22:14.625945,0,0,0,-1,0,2,0,-2
16:22:14.640936,2,-1,0,-1,0,-2,0,2
16:22:14.648004,0,1,-3,-5,-10,-5,-1,-3
16:22:14.662921,0,-2,2,1,5,-1,-1,-1
16:22:14.670917,1,-3,-2,0,0,-1,-2,0
16:22:14.685907,1,-2,-2,0,-2,0,-3,0
16:22:14.685907,1,-3,1,-1,2,-3,-2,0
16:22:14.700901,0,1,0,0,0,-1,0,-1
16:22:14.707898,-3,-1,-1,1,-2,-2,0,-4
16:22:14.722892,-2,-2,-4,-3,-4,0,0,-4
16:22:14.730879,-1,-2,-3,-1,-2,2,-2,0
16:22:14.752866,-2,-1,-4,-5,0,-2,0,0
16:22:14.753865,-1,0,-1,-4,3,2,-1,-4
16:22:14.760861,-1,3,0,0,-4,-4,-4,-3
16:22:14.767860,0,-1,1,-1,3,-1,0,0
16:22:14.783849,-3,1,-4,-4,-8,-4,0,-2
16:22:14.790842,-1,-1,-1,-3,-8,-1,-4,3
16:22:14.805834,0,-1,-1,-3,1,0,-2,-1
16:22:14.805834,1,0,0,0,-4,-1,-2,-2
16:22:14.820824,0,0,-1,1,-2,-1,-3,-1
16:22:14.827842,1,-1,1,-2,3,0,-3,-1
16:22:14.842814,-2,-2,-2,-3,-3,0,-3,-1
16:22:14.850806,-3,-2,-2,-3,-3,1,1,-1
16:22:14.865797,-2,0,-2,0,4,3,1,1
16:22:14.865797,-4,-3,-1,-5,2,1,-1,-1
16:22:14.880788,-2,0,-1,1,0,-1,-1,-3
16:22:14.887785,0,-4,-4,-1,-10,-4,-4,-5
16:22:14.902776,-4,-1,-1,0,2,1,-1,1
16:22:14.910769,-2,-3,-1,-2,0,-4,-3,-1
16:22:14.925761,0,0,-3,-2,0,-1,0,0
16:22:14.925761,1,-1,2,2,1,3,0,-1
16:22:14.940752,-5,-2,-3,2,0,0,-3,-1
16:22:14.948746,-2,0,-2,0,2,-4,0,-4
16:22:14.963740,-4,-1,1,-2,-10,-1,1,-2
16:22:14.978730,0,-3,0,-1,-1,-2,0,2
16:22:14.985726,-2,-2,-2,0,-2,-2,-2,0
16:22:14.986723,0,-1,0,-2,7,3,2,1
16:22:15.000716,1,0,1,1,1,-3,0,-1
16:22:15.008709,3,0,1,0,-1,1,1,1
16:22:15.023703,0,-2,0,0,3,-1,-3,1
16:22:15.030696,-4,0,-2,-4,-2,-1,1,-2
16:22:15.053681,-2,-3,-2,1,0,-1,-1,4
16:22:15.053681,2,-1,-4,0,2,0,-2,0
16:22:15.060678,1,0,-1,1,-9,0,1,0
16:22:15.068675,2,4,2,0,3,0,0,1
16:22:15.083663,-2,1,0,4,2,-4,-2,0
16:22:15.091659,-3,0,0,-1,-4,0,-3,-2
16:22:15.105650,0,2,0,-1,1,5,2,-2
16:22:15.121639,0,-2,-2,-3,2,-2,0,-1
16:22:15.128635,-3,-4,1,-3,-4,-2,-3,-2
16:22:15.128635,0,0,1,1,-5,-4,1,3
16:22:15.143630,-3,2,-2,0,1,2,-1,-5
16:22:15.150624,1,-3,-3,-1,-4,-5,-4,-1
16:22:15.165613,0,1,-1,0,-3,-3,0,0
16:22:15.173611,0,2,-2,-1,-2,0,0,-1
16:22:15.180606,-2,1,-1,-1,0,-2,0,-4
16:22:15.195595,-2,1,1,-2,-2,0,-2,-3
16:22:15.203592,-4,0,-1,0,-11,-3,-2,-3
16:22:15.210587,1,-4,-1,0,-3,3,-1,0
16:22:15.226575,-1,0,-2,-1,-4,-1,1,0
16:22:15.233573,0,-3,-2,1,-3,0,-3,-1
16:22:15.241568,-1,-5,-4,-4,-3,-4,-1,-2
16:22:15.248564,0,-1,1,-4,-7,-1,-3,-1
16:22:15.263555,-2,-3,1,1,3,1,0,-2
16:22:15.271548,3,-1,-3,2,1,3,-2,-1
16:22:15.286538,-3,-5,-2,-5,0,-2,-1,0
16:22:15.293539,-3,-1,-2,1,0,2,-2,0
16:22:15.301531,0,2,-1,-1,-2,-1,1,-1
16:22:15.308529,0,-3,0,-1,-5,-1,-3,-1
16:22:15.323517,-2,-1,0,-2,1,-2,1,-3
16:22:15.330513,1,-3,1,1,1,1,-1,-1
16:22:15.345501,-3,-3,-1,1,4,1,-1,0
16:22:15.353496,-2,1,0,2,1,0,-1,1
16:22:15.368487,-2,0,0,0,1,1,-3,0
16:22:15.375489,1,-3,1,-1,-2,0,-2,-2
16:22:15.383483,-5,0,-2,-5,-6,-2,-2,-1
16:22:15.390476,1,-3,1,4,5,-2,-3,0
16:22:15.413460,-1,-5,-3,1,2,0,-3,-3
16:22:15.420466,-3,-1,-4,-3,1,-2,0,0
16:22:15.427466,-1,-1,-1,-1,-4,-4,-2,0
16:22:15.428451,-2,-3,0,-3,-3,-2,2,0
16:22:15.443442,-1,0,-1,-1,-4,0,-1,-1
16:22:15.450438,2,0,1,1,0,2,2,-2
16:22:15.465438,1,1,1,1,-1,-1,2,4
16:22:15.473423,1,-2,0,1,2,-4,-3,-3
16:22:15.488413,1,-1,1,0,3,1,-2,-2
16:22:15.488413,-1,-2,1,-3,-4,0,-1,-2
16:22:15.503405,-1,-1,-3,0,0,0,0,-1
16:22:15.510403,0,-2,-1,1,-1,0,0,0
16:22:15.525394,2,3,1,-1,0,-3,0,1
16:22:15.533388,-2,-1,0,2,-1,0,0,-1
16:22:15.548380,2,-1,-2,1,1,2,3,1
16:22:15.548380,2,-2,1,1,2,1,1,-1
16:22:15.563371,-3,1,-3,-2,-4,3,-2,1
16:22:15.571364,0,1,-1,2,1,-1,-3,-3
16:22:15.586353,2,-1,-3,0,-1,1,-1,-2
16:22:15.593352,-2,-1,-2,-3,-3,-3,0,-3
16:22:15.608343,1,2,1,3,-3,-1,-1,1
16:22:15.609343,-1,0,1,0,0,1,-3,0
16:22:15.623334,-3,-3,1,2,-1,0,-2,-3
16:22:15.631326,2,-1,0,-3,6,1,1,0
16:22:15.646317,-2,-1,-2,1,-1,1,0,-3
16:22:15.653315,2,-2,-3,1,-8,-4,-1,1
16:22:15.668305,-1,-3,1,1,-2,-1,-1,-3
16:22:15.669306,-2,-2,0,1,3,1,2,-2
16:22:15.683293,0,1,-1,0,-11,-6,-1,-3
16:22:15.691289,-2,1,1,-1,2,2,-1,0
16:22:15.706280,0,-3,-1,-2,-5,0,0,1
16:22:15.713278,0,-3,-2,-6,4,1,-4,-1
16:22:15.728269,-1,-2,-3,2,5,-1,0,-1
16:22:15.729266,3,4,23,34,13,5,0,4
16:22:15.743260,-4,-4,-8,-3,-10,-3,-2,1
16:22:15.751252,0,-1,-1,6,4,-2,0,-4
16:22:15.773241,-5,0,4,3,0,-2,-1,-2
16:22:15.774239,4,-1,-12,-8,-3,2,2,3
16:22:15.796224,-5,-6,-12,-12,5,-2,-1,-3
16:22:15.796224,-1,3,11,0,0,2,-2,-4
16:22:15.811215,-3,-6,-13,-26,-28,2,-1,1
16:22:15.811215,-8,-10,9,3,-86,-31,-7,-8
16:22:15.826209,0,-5,-8,9,42,5,0,-6
16:22:15.833204,4,6,2,10,15,8,2,4
16:22:15.856190,6,13,19,43,60,17,5,8
16:22:15.863186,-7,-9,-6,-50,-62,-20,-3,-4
16:22:15.864185,-2,10,64,99,121,7,-2,-2
16:22:15.871181,-5,-6,33,8,81,3,-1,-5
16:22:15.886172,-1,-8,-40,-25,69,11,0,-1
16:22:15.893166,15,13,44,-8,-15,19,9,8
16:22:15.908158,-7,-19,-24,-33,91,-15,-3,-2
16:22:15.909155,9,29,96,-8,127,27,9,6
16:22:15.923146,-4,-30,-89,-128,-128,-73,-11,-4
16:22:15.931144,3,31,15,127,47,71,13,3
16:22:15.946135,32,41,-59,-77,-91,21,17,27
16:22:15.953128,-78,-120,-20,76,127,-60,-45,-51
16:22:15.968120,53,97,127,59,127,127,45,38
16:22:15.969120,-8,-24,-41,-61,-18,-60,-16,-4
16:22:15.983109,20,27,-24,-24,-128,62,20,15
16:22:15.991107,2,-22,-120,-128,-47,81,18,10
16:22:16.006098,-25,-25,-66,-128,-128,-95,-24,-18
16:22:16.013091,-17,8,76,-91,127,-20,-18,-23
16:22:16.028082,-40,-84,-42,127,114,6,-23,-26
16:22:16.029082,45,57,2,84,119,54,39,41
16:22:16.044075,18,45,3,45,-91,-22,3,4
16:22:16.051070,2,-36,-79,53,-98,71,15,8
16:22:16.066058,-46,-24,64,100,6,-61,-43,-38
16:22:16.073054,36,88,52,127,127,40,8,9
16:22:16.088047,-21,-103,-80,53,-128,-23,3,3
16:22:16.089047,-16,-6,8,-103,127,27,-5,-14
16:22:16.111033,4,5,-26,-14,13,-14,-2,3
16:22:16.111033,0,6,-11,-45,-67,-13,-5,-3
16:22:16.126024,2,27,28,52,19,2,-5,-4
16:22:16.133017,-8,-34,-47,-45,-89,-8,0,3
16:22:16.148007,-40,-73,-37,53,13,7,-16,-21
16:22:16.149007,32,95,61,33,-4,16,7,7
16:22:16.163999,-34,-77,-63,-74,-30,-8,-4,-6
16:22:16.170997,43,127,127,66,-54,26,3,3
16:22:16.185987,-65,-128,-95,127,127,-19,-22,-23
16:22:16.192983,39,89,59,5,-18,10,11,20
16:22:16.215965,3,-61,-25,78,98,17,7,12
16:22:16.216965,-2,23,11,-28,-116,-4,-2,-4
16:22:16.223965,-63,-128,-128,23,-45,-75,-24,-26
16:22:16.230960,42,63,79,0,-52,-6,2,8
16:22:16.253946,-110,-128,-128,49,71,5,-18,-31
16:22:16.260938,50,127,106,-11,-10,18,6,17
16:22:16.267934,-12,3,16,-2,-128,12,-3,-9
16:22:16.268933,16,23,43,127,117,45,15,15
16:22:16.283924,-3,-41,-40,-13,106,-12,3,4
16:22:16.290923,9,26,35,27,-20,11,0,3
16:22:16.313906,-13,-40,-63,-72,-44,-25,-6,-3
16:22:16.313906,4,15,11,6,50,18,6,3
16:22:16.335895,-9,-23,-20,-15,-6,-4,-3,-2
16:22:16.336891,-8,-14,-30,-74,-35,-4,-4,-2
16:22:16.350885,5,9,-13,-72,72,35,9,3
16:22:16.351884,-11,-29,-25,-35,-33,-9,-2,-3
16:22:16.365877,20,44,40,-5,-60,-11,7,9
16:22:16.373870,-18,-25,-1,77,42,8,-4,-11
16:22:16.388863,5,11,12,32,33,-2,-3,2
16:22:16.395858,-12,-16,-9,-34,-14,-6,-3,-6
16:22:16.410849,-12,-33,-34,-65,-16,11,-1,-1
16:22:16.411849,10,35,32,-5,35,-7,-1,-4
16:22:16.425840,10,41,50,7,-24,-3,-2,0
16:22:16.433833,-27,-49,-48,-39,-3,-24,-10,-11
16:22:16.448825,7,-6,-10,19,5,1,4,5
16:22:16.455821,1,16,33,23,6,3,-4,-5
16:22:16.470812,0,-1,3,7,-32,2,2,-1
16:22:16.471810,7,-4,-4,8,23,5,8,12
16:22:16.485803,-7,-8,-11,-15,-12,-2,-4,-2
16:22:16.493798,-2,-4,-4,0,50,25,2,-2
16:22:16.508786,-4,-2,-10,51,43,-2,0,-4
16:22:16.523777,3,4,12,-24,-7,8,-1,4
16:22:16.530775,-3,0,8,16,42,33,5,1
16:22:16.531771,5,12,18,9,0,7,5,1
16:22:16.545765,7,9,10,17,0,-10,-1,3
16:22:16.553758,7,10,7,2,6,8,3,9
16:22:16.568749,-13,-24,-22,-6,1,-4,-4,-7
16:22:16.575747,-9,-21,-20,31,74,25,-3,-6
16:22:16.590738,11,17,11,-32,-24,-4,1,1
16:22:16.591735,-22,-48,-36,-11,-22,-21,-10,-5
16:22:16.605728,6,-1,-14,-12,-54,-13,-1,3
16:22:16.613724,8,22,8,-2,-69,-31,-1,1
16:22:16.628716,11,32,34,27,39,23,4,2
16:22:16.643706,4,2,5,0,-9,-3,1,0
16:22:16.650701,-7,-11,-23,-40,-43,-24,-10,-5
16:22:16.651697,0,8,5,13,53,9,-6,-5
16:22:16.665691,1,3,8,-17,-24,-1,5,-1
16:22:16.673687,-5,-4,-2,-14,-117,-17,-5,-7
16:22:16.688678,-10,-21,-2,38,25,8,-1,-4
16:22:16.695672,16,28,-5,-53,-128,-35,-5,3
16:22:16.710664,-3,0,-5,-8,22,3,-3,-4
16:22:16.711661,8,4,-5,-16,-14,-9,-5,0
16:22:16.725652,-11,-28,-31,-34,-18,-9,-6,-7
16:22:16.733650,6,18,19,17,16,9,0,1
16:22:16.748640,21,39,20,-31,38,-11,4,9
16:22:16.755636,-6,-4,-2,49,7,2,1,-4
16:22:16.770627,1,-2,5,0,-20,-7,3,6
16:22:16.771627,-5,-3,2,1,4,6,-5,-7
16:22:16.793614,-1,5,7,-1,-6,5,-1,-1
16:22:16.793614,-3,-7,-6,-7,-5,-8,-6,-4
16:22:16.808604,4,10,8,12,75,19,5,0
16:22:16.815597,6,15,20,31,24,12,6,4
16:22:16.838586,6,25,36,18,-21,4,0,0
16:22:16.839582,-3,5,17,4,3,5,-4,-6
16:22:16.845579,-6,-10,-7,-6,-7,2,1,-3
16:22:16.853576,-3,-5,-10,-45,-56,-17,-4,-5
16:22:16.868567,6,6,1,-8,-10,-12,-2,2
16:22:16.875560,-4,-2,1,-3,-1,0,-3,-4
16:22:16.890552,1,0,7,-9,-58,-8,0,0
16:22:16.891553,7,20,20,-21,-26,-5,1,0
16:22:16.905542,-10,-14,-14,-14,-5,-2,-4,-3
16:22:16.913540,2,4,8,-7,-3,1,0,0
16:22:16.928530,1,-2,-1,1,-1,-5,-1,0
16:22:16.935522,7,0,0,-5,-8,-3,-3,1
16:22:16.950513,-5,-1,2,0,4,-1,1,4
16:22:16.951515,0,-3,-6,-5,-3,-2,1,-2
16:22:16.965504,-25,-3,3,4,10,8,7,18
16:22:16.973503,-1,6,2,-1,-3,-8,-11,-16
16:22:16.988493,-14,0,6,7,14,23,26,12
16:22:16.995486,34,14,2,1,0,-6,-38,-14
16:22:17.010478,-44,-1,8,8,15,21,46,44
16:22:17.011477,93,13,10,7,4,-14,4,12
16:22:17.025470,96,2,-1,0,1,-4,30,55
16:22:17.033465,-29,-3,6,4,19,20,92,18
16:22:17.048456,-66,-26,-25,-26,-36,-12,-5,-104
16:22:17.056451,43,29,24,21,25,26,86,46
16:22:17.071442,4,-14,1,-3,5,-1,-103,40
16:22:17.071442,-6,-3,-6,-9,-11,-6,23,-10
16:22:17.086433,-9,2,1,4,5,5,11,-22
16:22:17.093429,56,17,4,2,11,11,16,23
16:22:17.108420,-29,-21,-10,-8,-1,-1,-25,10
16:22:17.115415,-14,1,-4,-3,-10,-23,1,-43
16:22:17.146393,37,0,-3,-2,7,25,-6,11
16:22:17.146393,10,7,4,-9,-3,3,31,15
16:22:17.147395,-2,4,5,10,4,8,30,-37
16:22:17.153392,4,7,4,-30,-13,-8,-10,-13
16:22:17.168382,-5,-5,0,21,7,-3,1,-4
16:22:17.175379,28,6,-9,-29,-29,0,7,9
16:22:17.190366,-4,4,38,-36,11,-1,-8,-8
16:22:17.191368,14,-24,-13,67,28,-7,9,23
16:22:17.206356,12,16,-1,-12,-12,22,13,20
16:22:17.213352,15,33,-42,-5,29,17,13,6
16:22:17.228343,-38,-24,9,-19,-61,-17,-17,12
16:22:17.236344,16,-34,-25,-17,-14,-19,-19,10
16:22:17.251331,49,19,9,-51,15,-5,-14,-13
16:22:17.258327,-26,-16,25,37,47,21,-3,-4
16:22:17.266320,38,18,13,-128,-128,-9,4,-3
16:22:17.273318,-58,-12,-10,4,-26,-18,-13,-25
16:22:17.288309,-8,-4,-3,-27,3,24,6,2
16:22:17.296304,-4,-3,-2,-22,-16,-12,3,-3
16:22:17.311291,-11,-2,-7,-74,-18,-15,-4,-1
16:22:17.318289,1,-18,-10,21,1,3,-4,10
16:22:17.333280,11,4,1,1,2,-9,-14,-1
16:22:17.334277,-3,1,1,-2,2,10,1,-17
16:22:17.356265,30,-9,4,20,20,13,3,23
16:22:17.356265,-6,-2,-3,-30,-56,-15,0,-5
16:22:17.371258,2,-2,-28,-27,-32,1,0,-3
16:22:17.378253,-14,-9,-3,52,-6,-9,-10,-19
16:22:17.393244,0,-8,-23,-82,-50,-19,1,0
16:22:17.394240,2,-9,2,16,24,7,-4,-1
16:22:17.408235,18,11,21,14,12,7,4,13
16:22:17.416227,0,4,7,-26,-43,-4,2,3
16:22:17.431221,2,1,-12,-11,-20,-3,3,6
16:22:17.446212,2,-1,12,-5,17,3,2,7
16:22:17.453207,-1,3,-4,-16,-57,-12,0,-1
16:22:17.454206,-6,-4,5,75,38,5,-3,-2
16:22:17.468197,5,2,14,-14,0,1,3,-1
16:22:17.476190,1,2,29,18,-27,-6,-2,0
16:22:17.491184,-15,-5,4,31,58,14,1,-7
16:22:17.498179,-21,3,4,12,-114,-2,0,-10
16:22:17.513170,-4,-7,-15,35,34,-1,-7,-2
16:22:17.514167,-1,3,-13,11,-32,-2,-2,-3
16:22:17.528160,-3,-5,-20,-3,-1,-2,-5,-3
16:22:17.536156,0,2,13,37,-44,1,-1,-2
16:22:17.551148,12,-1,-2,-22,-8,-1,1,-3
16:22:17.558144,-2,0,4,6,8,6,1,-2
16:22:17.573133,-3,3,-1,2,-72,-1,-1,1
16:22:17.574132,11,2,0,-9,-32,-1,0,3
16:22:17.588125,-4,-3,-1,-21,30,-6,-6,-10
16:22:17.596119,-5,-4,-1,-21,-12,-4,1,-5
16:22:17.611110,-16,1,0,1,5,4,-2,-3
16:22:17.618102,-5,2,-12,-38,-6,1,-5,-8
16:22:17.633093,3,-4,1,5,-3,-9,-3,0
16:22:17.634094,-4,1,1,-1,-5,-9,-8,-7
16:22:17.648085,0,-1,-2,-5,4,1,-4,0
16:22:17.656082,-1,0,2,6,9,-3,-1,-1
16:22:17.671073,6,7,13,24,-68,-2,1,3
16:22:17.678066,-8,-6,-2,5,7,5,-4,-6
16:22:17.693058,1,2,6,4,-13,0,0,1
16:22:17.694059,0,2,-3,-4,-40,-3,4,-5
16:22:17.716042,-1,4,5,4,2,3,1,-2
16:22:17.716042,-1,1,-4,-23,-1,2,1,-1
16:22:17.731036,-10,-1,-1,7,-9,-4,-1,-3
16:22:17.738029,-5,-2,-1,6,18,-1,-5,-7
16:22:17.753019,6,2,0,-47,-2,7,3,4
16:22:17.754022,1,-3,-8,-1,-8,-4,-1,1
16:22:17.768010,-3,0,7,1,-43,-2,0,0
16:22:17.776006,-1,2,-6,0,0,1,1,-3
16:22:17.790999,0,3,6,-3,0,2,1,0
16:22:17.797991,2,-3,-1,-3,-3,0,2,0
16:22:17.812983,0,2,-1,-1,-4,0,-3,-4
16:22:17.813985,4,2,1,0,-2,3,6,2
16:22:17.827976,-1,-1,-3,0,7,8,-2,2
16:22:17.835972,0,-3,-1,3,3,-5,-2,-3
16:22:17.850960,3,1,-3,-35,-90,-6,-2,-1
16:22:17.858955,-1,-2,-5,-3,-6,-3,-1,-1
16:22:17.872946,4,1,-1,-5,16,3,-1,2
16:22:17.873945,-2,-3,-4,8,6,1,-1,3
16:22:17.888938,0,-1,-1,0,-5,-8,-5,0
16:22:17.895935,0,1,1,-2,-1,-2,-2,1
16:22:17.910924,-2,-3,-4,-3,-13,-3,0,-2
16:22:17.917920,-6,-6,-2,12,8,-5,-5,-4
16:22:17.933908,0,-1,0,1,-8,3,0,4
16:22:17.933908,-1,-1,-2,8,-7,4,1,-1
16:22:17.948902,-1,-3,0,-9,9,-2,0,-2
16:22:17.955898,1,0,3,2,-1,-3,1,1
16:22:17.970885,-2,-3,-1,-5,-73,-10,-3,-3
16:22:17.977884,-1,1,2,-4,7,0,-1,-1
16:22:17.993872,-1,1,0,1,-2,-1,0,-1
16:22:17.993872,-4,0,-4,2,-5,-6,-5,-2
16:22:18.008862,2,-1,-1,-1,-4,-1,0,2
16:22:18.015857,-6,-3,-4,-26,-6,-3,-5,-4
16:22:18.030849,-1,-3,-2,8,-9,-4,-3,2
16:22:18.038843,-2,-6,-1,1,2,-1,-3,-4
16:22:18.053834,2,0,1,-1,-6,-1,1,3
16:22:18.053834,-1,0,-1,2,-2,3,-2,-3
16:22:18.068825,0,-2,-2,1,55,4,0,1
16:22:18.075824,3,3,1,29,40,0,-2,0
16:22:18.090812,7,0,1,13,8,3,5,4
16:22:18.098808,-2,0,-1,1,1,0,-3,-1
16:22:18.113798,2,-2,0,2,-4,1,-2,1
16:22:18.113798,-4,0,0,-1,-2,1,-1,-4
16:22:18.128788,-4,-2,1,0,-1,-3,3,0
16:22:18.135787,0,0,2,-2,-1,2,2,4
16:22:18.150775,-3,0,-4,1,4,-5,-1,2
16:22:18.158770,0,-2,-2,-3,-1,-2,0,0
16:22:18.173763,-1,-4,-3,-1,-6,-1,2,-5
16:22:18.173763,3,-3,-2,1,4,1,2,2
16:22:18.188755,1,0,-1,11,1,-3,-1,4
16:22:18.195750,-1,-1,-3,-1,-3,0,1,-1
16:22:18.211740,-2,2,1,1,2,-1,-3,-3
16:22:18.218733,-1,-1,-3,-5,-14,3,0,-1
16:22:18.233726,-1,-2,1,-1,0,-1,0,0
16:22:18.241722,3,0,-3,-5,17,7,2,4
16:22:18.255713,-1,2,2,14,-52,-6,-1,-2
16:22:18.256712,-1,-2,3,0,9,8,4,1
16:22:18.278696,-1,0,-4,-4,-5,-3,0,-1
16:22:18.278696,-1,1,-1,9,1,1,0,-3
16:22:18.293687,-8,-3,0,8,7,-1,-4,-4
16:22:18.300684,-3,-1,-4,-2,-3,0,0,-3
16:22:18.315676,4,1,1,2,4,2,1,4
16:22:18.316673,-1,0,0,-4,2,1,0,1
16:22:18.331666,1,-4,-2,-5,-1,-1,-3,2
16:22:18.338662,8,4,3,15,7,4,6,4
16:22:18.360648,-6,-8,-3,-2,1,-5,-6,-8
16:22:18.361645,0,0,1,-5,10,3,-1,2
16:22:18.375639,-5,-1,-2,-28,-74,-3,-3,-3
16:22:18.376639,2,-2,0,7,15,3,3,3
16:22:18.391629,1,1,1,-2,-6,-4,-3,0
16:22:18.398625,-6,-5,-6,-1,1,-1,0,-2
16:22:18.413616,-2,-1,0,-5,-4,0,1,0
16:22:18.421612,-4,-4,1,-2,-5,1,2,1
16:22:18.435601,-3,0,-2,1,2,0,1,0
16:22:18.436599,-5,-1,-1,0,-6,-3,-4,-1
16:22:18.451590,-2,1,-1,0,-2,2,-3,-3
16:22:18.465582,0,4,2,0,14,16,3,6
16:22:18.473579,-3,-1,0,-3,-5,-7,-1,-7
16:22:18.481573,0,-1,-4,-3,1,-2,0,1
16:22:18.495564,1,0,0,-2,-1,0,-2,-3
16:22:18.496562,1,1,1,-2,2,-1,2,2
16:22:18.511555,-2,-4,0,-2,4,2,-1,0
16:22:18.518552,1,0,1,1,3,-1,-1,1
16:22:18.533541,-1,-2,1,-19,5,-4,-4,-1
16:22:18.541538,-2,-5,-4,0,14,2,-2,-2
16:22:18.555527,-2,2,0,1,-1,0,-4,0
16:22:18.556525,2,-1,0,-2,-1,-1,0,-1
16:22:18.571516,-6,-2,-3,0,-5,-2,0,-2
16:22:18.586510,0,1,0,-1,-1,-3,0,-2
16:22:18.593506,-5,-1,-1,-3,-3,1,-1,-3
16:22:18.601498,0,3,-2,1,-4,0,3,1
16:22:18.615489,-1,-2,-2,-1,-1,-4,-1,-1
16:22:18.616488,-1,-1,-2,-3,11,10,4,0
16:22:18.631478,0,0,-1,-1,-4,1,-2,0
16:22:18.638478,-3,-2,-3,1,1,-3,-2,-1
16:22:18.653468,-6,-5,0,1,0,0,-1,-1
16:22:18.661461,-2,-1,0,-5,-2,1,3,-1
16:22:18.675452,1,2,-1,-16,-8,-1,-1,1
16:22:18.676454,2,-1,-1,-1,1,0,1,3
16:22:18.691442,0,1,-1,2,-5,1,2,0
16:22:18.698442,-1,-3,-1,-2,0,-1,1,0
16:22:18.713431,9,-2,1,0,2,2,1,2
16:22:18.721427,-4,-4,0,-2,3,2,0,0
16:22:18.736414,0,0,-2,-4,-4,1,-4,3
16:22:18.736414,-3,3,-1,-1,-1,0,1,0
16:22:18.751404,0,0,-3,-2,-1,-1,-4,-1
16:22:18.758404,0,-1,-5,-4,-3,-2,-1,1
16:22:18.773395,4,0,1,5,1,3,2,2
16:22:18.781387,-4,-2,-2,-2,1,-2,-1,1
16:22:18.795378,-3,-1,-2,1,-10,-5,0,-2
16:22:18.796377,-4,-2,-1,-4,0,-1,2,-1
16:22:18.811371,3,1,2,4,2,1,3,1
16:22:18.818366,-2,-5,-3,-4,-4,-3,-3,-1
16:22:18.833357,1,2,4,0,1,-7,-2,-1
16:22:18.841353,1,-2,-2,-2,-3,-2,5,1
16:22:18.856342,-3,-4,-1,-1,1,0,-4,-6
16:22:18.856342,-2,-1,-1,0,2,3,2,2
16:22:18.871334,-1,-3,-2,-3,-5,-6,-6,0
16:22:18.878330,-3,-2,-2,-4,-2,0,-3,0
16:22:18.893321,-1,-1,-3,-1,2,1,2,0
16:22:18.901315,3,-1,-4,-2,-1,0,-2,-1
16:22:18.916304,-2,1,-2,-3,-2,-4,-1,-3
16:22:18.916304,2,-1,-1,1,-1,0,-1,1
16:22:18.931298,-1,0,0,-3,-5,-5,-3,-4
16:22:18.938293,-2,-2,-1,-3,-3,-1,0,0
16:22:18.953284,2,0,1,2,-3,-1,2,5
16:22:18.961279,-5,-1,-2,-5,-3,-1,-1,0
16:22:18.976266,-3,0,0,0,-2,0,1,0
16:22:18.977269,4,-1,-3,-4,2,0,1,4
16:22:18.991260,0,-1,0,2,3,-2,-1,1
16:22:18.998256,-2,1,0,1,0,2,-2,0
16:22:19.013247,-2,-4,-3,0,-5,2,0,-1
16:22:19.028237,-1,0,-1,0,-4,-1,1,1
16:22:19.036232,-1,-1,1,-3,1,-1,0,-2
16:22:19.036232,-5,-3,-7,-2,-3,-3,-2,-1
16:22:19.051223,-1,1,1,3,1,-2,-1,-2
16:22:19.058216,-3,-4,-4,-2,-1,1,-2,-3
16:22:19.081205,0,0,-1,0,-2,-1,-4,2
16:22:19.088198,-2,0,1,1,5,3,2,0
16:22:19.096193,-1,-1,-2,-1,0,1,2,-1
16:22:19.096193,-1,-2,-1,-4,-5,0,-2,0
16:22:19.111184,0,0,3,-2,5,1,3,-1
16:22:19.118181,-1,-5,-1,1,-3,1,0,0
16:22:19.133182,-3,-4,-3,-4,-5,-4,-5,-1
16:22:19.148162,-6,-6,-3,-1,-2,-1,0,0
16:22:19.156159,3,1,-2,-2,-3,-5,-2,1
16:22:19.163154,-2,-2,0,1,10,0,3,4
16:22:19.178146,2,-2,0,-2,1,-5,-1,-4
16:22:19.179142,-3,0,-2,-2,0,-1,1,-2
16:22:19.193133,-3,-2,-4,-4,1,-3,3,-1
16:22:19.201130,0,-2,0,-1,-3,1,0,0
16:22:19.216122,2,1,4,2,2,4,1,3
16:22:19.224114,-3,-1,0,-2,3,-1,2,2
16:22:19.238107,0,-3,-1,-1,3,0,-3,1
16:22:19.253099,-2,-1,0,2,-3,-1,-2,-2
16:22:19.254096,-1,0,-1,-2,2,0,-2,-2
16:22:19.261094,-2,-1,0,-4,0,-3,0,1
16:22:19.276085,3,4,1,3,2,1,2,4
16:22:19.283078,-3,0,0,1,-1,-1,0,2
16:22:19.298070,0,-2,-2,0,-4,-2,-1,-2
16:22:19.299071,2,0,1,-1,-3,3,2,-1
16:22:19.313060,-1,-2,1,0,-1,1,-2,-3
16:22:19.321057,-1,-1,2,-4,2,7,3,0
16:22:19.336048,-4,0,-3,2,7,2,-3,-1
16:22:19.343046,0,-1,1,0,-3,-1,5,2
16:22:19.358033,0,1,4,3,5,5,1,1
16:22:19.359031,-3,0,-3,-6,-3,-1,0,-1
16:22:19.374022,4,-3,1,0,1,-4,0,2
16:22:19.389015,-1,0,-2,-4,-4,-9,-3,2
16:22:19.396011,-1,-2,0,-7,-7,-1,0,-1
16:22:19.404003,-1,-2,-2,-1,5,5,2,2
16:22:19.417994,-2,0,-2,-3,-3,-4,-4,-2
16:22:19.418994,-1,2,-2,0,5,3,1,-1
16:22:19.432986,-2,0,-3,-2,-1,-1,0,1
16:22:19.440983,1,1,-1,1,-2,-1,1,0
16:22:19.455974,0,-1,1,-2,-1,0,-2,-2
16:22:19.463968,1,-3,1,2,-6,0,3,-1
16:22:19.477958,-1,1,1,0,1,-1,-1,-4
16:22:19.478957,-2,-2,-2,-2,2,1,1,0
16:22:19.493948,0,-1,1,3,1,2,-2,-1
16:22:19.500946,-3,-3,-3,-6,-7,-5,-1,-3
16:22:19.515937,2,2,0,2,5,-1,0,0
16:22:19.530928,-7,-3,-4,0,0,1,0,-4
16:22:19.537922,1,0,0,3,5,6,3,1
16:22:19.538923,-2,-1,1,-2,-2,-1,0,-2
16:22:19.553912,-3,0,-1,0,-2,1,1,-1
16:22:19.560910,0,-3,0,-1,0,1,0,4
16:22:19.575898,0,2,-3,-2,-7,-4,-2,-3
16:22:19.583894,-6,-6,-4,-4,-6,-2,-1,-1
16:22:19.598884,-3,-5,-2,-4,-6,-2,-2,-1
16:22:19.598884,-1,-1,-3,-4,5,2,1,1
16:22:19.613874,2,-4,2,2,1,5,-1,-2
16:22:19.620870,-1,2,-2,-1,-2,-3,-1,0
16:22:19.635864,-1,-2,-3,-3,-5,-3,-2,-4
16:22:19.643856,1,-1,0,-1,-2,-2,-2,-3
16:22:19.658847,-1,-2,0,2,-4,2,-4,3
16:22:19.658847,-3,-3,-2,-1,1,2,-4,-3
16:22:19.673840,-2,1,-3,-2,-2,1,2,0
16:22:19.680833,-1,-1,-3,1,0,-1,1,0
16:22:19.695827,3,2,-1,-2,-1,1,2,0
16:22:19.703818,0,0,-3,-2,-1,0,0,3
16:22:19.718811,-1,1,4,4,11,8,5,1
16:22:19.718811,-2,-2,-1,-1,-3,2,-2,1
16:22:19.733803,1,-1,-1,1,-2,-1,-1,0
16:22:19.740797,-1,-2,-1,2,1,0,0,1
16:22:19.755788,1,-1,2,-3,0,2,5,1
16:22:19.763782,-3,-5,-2,-6,-5,-4,-2,-5
16:22:19.778774,-1,-1,2,2,0,0,-1,0
16:22:19.778774,1,-2,-3,-6,3,-1,-3,0
16:22:19.793767,1,0,-1,1,2,2,2,3
16:22:19.800759,-1,3,-1,0,-2,-1,0,0
16:22:19.815753,-2,0,-3,1,2,-1,-2,-4
16:22:19.830740,-4,-2,-1,-6,-4,-2,2,-1
16:22:19.838735,3,0,1,-1,0,1,0,-1
16:22:19.838735,4,2,3,6,6,6,6,5
16:22:19.853730,-1,-1,-1,-1,-3,-2,-1,-4
16:22:19.860722,2,2,1,-2,2,-3,1,0
16:22:19.875716,0,-1,0,-1,0,0,0,-4
16:22:19.883708,-3,-2,0,2,-1,-1,-3,1
16:22:19.898699,0,-1,-1,-3,-19,-3,0,-3
16:22:19.898699,-1,-4,-1,-2,4,-6,0,-3
16:22:19.913693,3,4,3,5,9,9,3,4
16:22:19.920686,1,-1,-1,0,2,1,3,-1
16:22:19.935677,1,0,-4,0,-3,-3,-1,-1
16:22:19.943674,1,2,2,1,1,1,1,3
16:22:19.958662,-2,0,-2,0,4,-1,0,0
16:22:19.958662,-3,-1,0,1,2,0,3,1
16:22:19.973653,0,-3,-4,-4,-1,-3,-1,1
16:22:19.980649,-2,-1,-4,-3,-2,0,0,1
16:22:19.995640,0,1,3,1,6,1,1,2
16:22:20.003637,1,2,2,-2,-3,-1,1,-3
16:22:20.018627,-1,0,0,0,2,0,0,-1
16:22:20.018627,3,0,-4,-3,0,0,1,0
16:22:20.033615,-1,0,-2,-3,-1,2,1,-2
16:22:20.041613,-1,-2,1,-3,-2,-1,-2,-3
16:22:20.056603,-1,4,3,2,-2,2,2,3
16:22:20.063597,3,1,0,1,1,-2,2,2
16:22:20.078591,0,-1,2,0,-1,-2,-4,-1
16:22:20.085584,1,-1,0,-4,0,0,1,-2
16:22:20.093582,1,1,3,3,7,-2,1,2
16:22:20.101574,-3,-2,-1,-3,-5,-4,-1,-1
16:22:20.116567,-1,1,-2,-1,0,0,-3,-3
16:22:20.123560,1,-3,0,1,-1,-2,-1,2
16:22:20.138554,5,3,5,2,6,3,2,2
16:22:20.145550,0,-2,-3,0,1,1,0,-1
16:22:20.160539,-5,-3,-4,1,1,-3,-3,-1
16:22:20.161539,-1,-2,-1,-6,-3,0,0,-1
16:22:20.176530,0,-1,-2,-2,0,-2,-4,0
16:22:20.183526,2,3,3,9,16,5,4,3
16:22:20.198517,-2,-1,-1,-6,-8,-8,-3,1
16:22:20.206511,-1,-4,-4,-2,-3,-2,-3,1
16:22:20.220501,1,-3,1,-1,-4,-1,-1,2
16:22:20.228499,3,3,1,3,3,0,1,1
16:22:20.236490,2,1,-1,-4,-6,-3,-3,2
16:22:20.243490,2,1,-1,3,3,-4,1,3
16:22:20.265473,0,0,4,1,2,1,0,-1
16:22:20.266475,-3,-1,-1,-3,-4,1,3,0
16:22:20.288462,0,-2,1,-1,-4,-3,-5,-2
16:22:20.289461,-4,0,0,-3,-3,3,1,2
16:22:20.295457,2,-2,1,1,4,5,2,3
16:22:20.303453,0,-3,0,0,-1,-2,3,-3
16:22:20.318442,1,0,0,3,0,-1,-1,0
16:22:20.325438,-6,-5,-1,-4,2,-3,-3,1
16:22:20.340428,1,0,0,0,-7,-3,0,1
16:22:20.341427,0,-1,1,2,-2,1,2,3
16:22:20.356420,2,-3,0,0,-5,0,-4,0
16:22:20.363416,4,1,2,6,11,7,8,8
16:22:20.378407,-2,-1,0,-5,-1,-1,-3,-3
16:22:20.386398,-3,-2,-2,-2,-3,-7,-3,-3
16:22:20.408388,-4,-2,0,2,-2,-4,-4,-1
16:22:20.409387,-2,-4,-3,-4,-1,6,0,0
16:22:20.416380,-4,0,-1,0,-8,0,-2,-2
16:22:20.423379,-2,0,-3,1,1,-3,-4,-1
16:22:20.438369,1,2,0,1,5,4,0,2
16:22:20.446364,-1,-1,-2,-1,-3,-3,-2,-1
16:22:20.461354,-2,-2,-2,-4,-4,0,-3,-4
16:22:20.468350,-4,-4,-3,-3,-4,-4,-1,-2
16:22:20.476346,-2,-1,-2,-5,-9,-6,-3,0
16:22:20.483342,-2,-1,-4,1,7,5,2,-1
16:22:20.498330,-1,-3,-1,-3,-2,-2,0,0
16:22:20.506324,1,-2,-1,-1,-2,-3,0,3
16:22:20.528314,-3,3,-1,-2,4,7,-1,-2
16:22:20.529311,4,1,4,2,6,0,1,2
16:22:20.536307,0,1,4,1,-1,-6,-1,-3
16:22:20.543305,-1,0,-2,1,2,0,-1,2
16:22:20.558294,-4,-4,-6,-6,-7,-3,-2,-2
16:22:20.566290,-1,-2,0,2,-7,-5,1,3
16:22:20.581282,-2,-2,-4,-5,-1,1,-1,0
16:22:20.588276,-4,-1,0,-3,-13,-1,0,-3
16:22:20.596273,-2,-1,-1,-1,-1,-3,0,-2
16:22:20.603267,1,-2,-1,-3,-2,-2,0,2
16:22:20.618257,-2,1,-2,-3,0,0,0,-3
16:22:20.626251,0,-1,-3,-1,-5,-3,-1,0
16:22:20.641244,1,-2,1,3,-7,-4,-1,-1
16:22:20.641244,-1,-2,-2,1,1,-2,0,0
16:22:20.656236,0,1,0,0,-5,-2,1,2
16:22:20.663229,2,-1,0,3,4,3,1,-4
16:22:20.678220,0,3,1,-2,-5,-5,1,-2
16:22:20.686217,-2,-1,2,0,2,1,1,0
16:22:20.701204,0,-2,1,0,0,3,1,1
16:22:20.701204,2,0,0,-3,-6,0,1,0
16:22:20.716196,-3,-6,0,2,0,-4,0,0
16:22:20.723192,-2,-2,-1,0,0,-2,-1,-1
16:22:20.739184,-3,0,1,-1,3,2,0,2
16:22:20.746179,1,0,0,1,-7,-5,0,2
16:22:20.761170,0,3,0,-1,0,-1,-1,-1
16:22:20.761170,-3,1,-2,-4,-5,-1,1,-1
16:22:20.776162,0,-1,-3,-3,5,0,-1,-3
16:22:20.783156,-1,-3,-2,-4,-6,-2,-2,0
16:22:20.798146,-3,-1,0,-2,-2,-1,-1,-2
16:22:20.806143,-6,0,0,-4,-4,1,-1,1
16:22:20.821131,-1,0,-3,-4,-4,0,-1,-3
16:22:20.821131,-1,-2,-2,0,3,1,2,2
16:22:20.836125,1,0,1,4,0,-1,0,-1
16:22:20.843117,-1,0,-1,-3,-1,-5,0,-1
16:22:20.858108,2,-1,-2,5,5,1,1,3
16:22:20.866106,-4,0,-2,-1,-3,0,0,0
16:22:20.881105,0,-2,1,0,2,-1,0,-2
16:22:20.881105,0,-3,-1,-4,1,1,2,-1
16:22:20.896088,0,0,-1,1,-3,-3,-2,-3
16:22:20.903083,-2,-5,-1,1,-3,-3,0,-1
16:22:20.919074,-3,-5,-1,-3,-5,0,-2,-4
16:22:20.934063,0,3,-1,2,9,3,4,4
16:22:20.941057,-1,-3,-1,-5,-5,-6,-6,-3
16:22:20.941057,-2,1,0,-1,2,1,-3,-3
16:22:20.956051,-3,-1,-2,2,-3,-5,0,-3
16:22:20.971042,1,1,1,1,-1,-3,0,3
16:22:20.978037,-3,-2,-3,-2,2,-1,-3,-7
16:22:20.986033,2,-1,0,-3,1,2,-1,1
16:22:21.001022,0,1,-2,-1,1,-1,1,0
16:22:21.002021,1,3,-2,0,-3,4,2,0
16:22:21.024006,-3,1,4,-2,-11,-4,-1,0
16:22:21.024006,-2,-7,-4,-3,3,-1,-2,-1
16:22:21.039000,-1,1,0,-2,-1,0,-2,0
16:22:21.045996,-1,-2,-3,-4,0,-1,-2,0
16:22:21.060986,0,1,3,1,3,-1,-4,-1
16:22:21.067981,1,2,0,-3,-2,-6,0,1
16:22:21.083969,0,-3,-1,-1,-4,-3,0,-1
16:22:21.083969,-2,-3,-2,-4,-3,-1,0,0
16:22:21.098960,-1,2,2,1,-4,0,0,1
16:22:21.105959,-3,-1,-4,-1,2,0,-1,0
16:22:21.120949,1,-1,-3,-2,0,-3,0,-1
16:22:21.128945,-1,-1,0,0,-1,0,-2,-4
16:22:21.143932,-1,-1,0,-1,0,-6,-1,-3
16:22:21.143932,-2,-1,-2,-3,-8,-4,-1,1
16:22:21.158925,-1,1,-1,2,8,0,0,-2
16:22:21.165921,-2,-5,-5,-5,-14,-4,-3,-4
16:22:21.180911,-2,1,1,5,2,-2,1,-2
16:22:21.188907,-3,0,-3,-2,-5,-2,0,1
16:22:21.203896,0,-1,2,1,2,0,-2,-1
16:22:21.203896,-1,-4,1,-3,6,0,3,1
16:22:21.218886,-3,3,1,2,0,0,2,0
16:22:21.225885,-4,-2,-3,-4,-6,-3,-4,-5
16:22:21.240874,-2,0,-2,-5,-5,-1,1,-3
16:22:21.248873,-1,-1,-3,-1,-3,1,-1,-4
16:22:21.263859,-4,1,-5,-1,3,-4,-2,1
16:22:21.263859,-1,-3,0,-3,-4,2,0,0
16:22:21.278852,1,1,-2,-3,-1,-2,-1,-3
16:22:21.285848,1,0,0,1,0,0,-1,4
16:22:21.300836,-2,-1,-1,0,-1,0,-4,2
16:22:21.308834,-4,-4,-2,-1,0,6,-1,-3
16:22:21.330820,-1,-2,2,0,-6,-9,0,1
16:22:21.331817,-4,-4,-2,-6,-10,-11,-4,-1
16:22:21.338813,-2,-3,0,1,-1,-2,-3,-1
16:22:21.345811,7,4,4,2,8,9,7,7
16:22:21.360799,0,4,2,1,-5,-4,4,1
16:22:21.368794,0,-1,-2,-3,-1,-3,-3,-2
16:22:21.383785,-1,-2,1,0,1,-1,-2,-4
16:22:21.383785,0,0,1,-2,-3,0,0,-1
16:22:21.398778,0,2,-1,2,-4,-3,-1,1
16:22:21.405774,-3,-4,-3,-4,-8,-3,-1,-3
16:22:21.420762,-1,0,4,0,0,-1,-1,-1
16:22:21.428760,-3,-5,-3,-1,4,0,-1,-3
16:22:21.443748,-1,-1,-1,1,-2,-5,-1,-3
16:22:21.443748,-2,-1,-2,-3,-6,-2,0,1
16:22:21.465737,-1,0,0,1,-8,-3,-3,0
16:22:21.466736,3,0,2,-1,6,2,3,3
16:22:21.481728,-2,-1,-2,-4,-4,2,-1,-2
16:22:21.496717,-2,0,-2,1,-1,-2,-2,-1
16:22:21.503711,0,-1,0,0,5,7,3,2
16:22:21.503711,-2,-2,-3,-2,1,-2,-2,1
16:22:21.518704,0,-1,1,-2,3,0,1,0
16:22:21.525698,-1,-1,0,-4,-4,-4,-2,0
16:22:21.541693,-2,-3,-2,-1,2,1,-5,-5
16:22:21.548685,2,0,1,0,1,-1,0,3
16:22:21.563673,-2,-1,1,0,2,-4,2,0
16:22:21.563673,4,4,3,1,2,2,2,2
16:22:21.578668,-3,0,-2,-2,-1,-3,-2,-1
16:22:21.585661,-1,-1,-1,0,3,4,2,2
16:22:21.600653,2,-2,-2,-2,-7,-1,-1,1
16:22:21.608649,-2,1,2,5,9,-1,3,3
16:22:21.623642,0,-2,-1,-5,-13,-7,2,1
16:22:21.624638,2,0,2,-20,-32,-7,1,1
16:22:21.638631,-2,-3,1,5,-47,-2,-3,-1
16:22:21.645624,0,1,0,2,14,-4,-2,0
16:22:21.661620,-5,1,-1,-2,-1,-1,-3,-1
16:22:21.668612,0,2,0,1,2,5,3,0
16:22:21.683602,-2,0,-3,-4,-7,-2,2,4
16:22:21.683602,-1,0,0,0,-2,-1,-2,-2
16:22:21.698594,1,-2,-2,-2,-5,-1,1,-4
16:22:21.705586,-1,-3,1,-1,1,-1,0,-1
16:22:21.721580,-1,-1,-3,0,1,3,-2,-7
16:22:21.728575,0,1,2,6,9,4,2,1
16:22:21.743566,-1,2,-3,-1,1,-2,-1,-1
16:22:21.744564,-1,-1,1,-2,0,1,3,1
16:22:21.765552,0,1,1,-1,4,0,1,0
16:22:21.773548,0,-2,1,-6,3,0,2,5
16:22:21.781542,1,1,-2,8,2,2,0,4
