timestamp,emg1,emg2,emg3,emg4,emg5,emg6,emg7,emg8
15:39:43.602616,-2,1,3,-2,6,0,1,0
15:39:43.619606,-2,0,-1,-3,-9,-2,-2,2
15:39:43.619606,1,1,1,-1,1,-2,-5,-3
15:39:43.633597,-4,0,0,2,3,3,-1,-3
15:39:43.640592,1,-4,0,0,1,-2,-1,-1
15:39:43.655583,-2,-3,0,1,0,-3,-2,-3
15:39:43.670572,-1,0,0,-1,-5,-2,-2,0
15:39:43.677568,2,1,-1,-3,-6,0,1,-2
15:39:43.677568,0,-1,-1,9,-1,-1,-2,-1
15:39:43.692559,-1,-2,-2,2,-9,-4,-3,-3
15:39:43.707550,-2,-1,-1,-4,4,1,-3,-2
15:39:43.722542,0,-1,-3,-4,-2,-1,3,-1
15:39:43.723541,2,1,1,1,6,0,-1,1
15:39:43.746527,-2,1,-3,1,2,2,-2,0
15:39:43.747527,-1,1,-2,-2,-3,1,-3,1
15:39:43.752524,-2,-1,0,-4,-3,-4,1,-2
15:39:43.760520,-1,-3,1,0,-3,1,-2,0
15:39:43.775508,0,-1,-2,2,1,-1,0,0
15:39:43.790501,-2,0,-1,-1,-1,-3,0,-4
15:39:43.797499,0,-1,0,0,-2,0,-1,1
15:39:43.798496,-2,-1,-1,-2,-3,-2,-2,-3
15:39:43.813488,0,0,1,0,-5,1,-3,-2
15:39:43.820483,-3,1,-1,0,-6,-1,-2,-1
15:39:43.835474,0,-3,-2,3,4,-1,2,1
15:39:43.842466,-1,-2,-2,-3,0,-3,-1,0
15:39:43.858458,-2,-2,0,1,0,-1,-3,0
15:39:43.858458,-2,-4,-2,0,-2,0,4,-2
15:39:43.873450,1,-1,-1,-1,-1,-2,-3,0
15:39:43.880446,-1,1,-1,-1,7,1,-2,-2
15:39:43.902431,-1,-2,1,-2,0,0,-2,0
15:39:43.903429,1,-3,0,0,1,1,-2,-1
15:39:43.918422,1,-2,-2,-8,-9,-2,-3,-1
15:39:43.918422,-2,-4,1,4,4,-3,1,-1
15:39:43.933414,-3,2,1,4,-7,-2,-3,-1
15:39:43.940406,-3,-4,-2,-1,-4,-3,-1,-2
15:39:43.955397,-2,-2,0,-3,5,1,-1,1
15:39:43.963395,3,2,1,-1,-7,-2,0,0
15:39:43.978384,-1,-2,-2,-3,-1,-3,0,-3
15:39:43.978384,1,-2,1,1,4,3,0,-3
15:39:43.992374,1,-3,0,0,-1,-1,-2,-1
15:39:44.000372,2,0,0,0,-1,-1,-2,0
15:39:44.015362,-1,2,-1,-4,-5,-4,-4,1
15:39:44.023357,1,-1,0,0,6,-1,-3,-3
15:39:44.038346,-1,2,-1,-3,-9,-4,-3,0
15:39:44.038346,-1,-1,-2,-4,5,-3,-2,-4
15:39:44.053338,1,-2,-3,1,-4,0,-1,-1
15:39:44.060331,-1,0,3,0,0,0,2,-1
15:39:44.075324,0,-3,-1,1,0,-2,0,0
15:39:44.083319,-1,-1,1,-4,-1,-3,2,-1
15:39:44.098308,0,-4,-2,-2,-4,0,-2,-3
15:39:44.098308,-1,-3,-1,0,2,1,-2,-3
15:39:44.113298,-1,0,-1,2,-2,-1,1,0
15:39:44.120294,-3,-1,-2,1,0,-1,-1,-3
15:39:44.135285,1,2,-1,-5,-2,2,-1,3
15:39:44.143282,-2,-2,-2,0,-11,-4,-4,0
15:39:44.158272,-3,-3,1,2,3,-1,1,-1
15:39:44.159270,0,-3,1,0,0,-2,-1,-3
15:39:44.173262,-1,3,-1,-1,-1,-1,-4,1
15:39:44.180259,2,1,1,-1,-3,2,-1,3
15:39:44.195247,-2,-4,-1,0,-3,-3,-2,-2
15:39:44.203246,1,1,-1,-1,-1,0,-1,0
15:39:44.218236,2,1,-1,0,2,-2,1,-2
15:39:44.218236,-1,-1,-1,-1,1,-4,-2,-5
15:39:44.233224,-1,-2,-2,-3,-5,-2,-2,-3
15:39:44.240220,0,0,-1,6,0,0,-1,1
15:39:44.255213,-2,-2,-1,-1,2,0,-1,-1
15:39:44.263206,-1,0,0,0,1,-2,-1,-1
15:39:44.278197,-1,-3,-2,-5,-3,1,1,-3
15:39:44.278197,3,1,-1,1,1,-1,1,1
15:39:44.293188,-1,-1,-3,1,-2,2,0,-1
15:39:44.300183,0,3,-2,-1,-3,0,-2,2
15:39:44.315176,-1,-4,-2,-2,3,-4,2,-3
15:39:44.323170,1,-3,-1,-3,1,-1,0,1
15:39:44.338160,1,-1,-1,-1,-10,-2,-4,-4
15:39:44.345157,-1,1,-1,0,-5,-3,0,-2
15:39:44.360146,-2,0,-1,0,2,2,-1,-1
15:39:44.361148,-3,0,-1,5,5,-3,-2,-1
15:39:44.376138,-5,-2,0,-3,0,2,-1,0
15:39:44.383134,-2,-2,-2,-5,-9,-2,-2,0
15:39:44.398125,2,-4,1,0,-2,3,1,1
15:39:44.405119,-1,2,-2,3,0,-3,0,-1
15:39:44.428105,-2,-1,4,1,2,-1,-3,3
15:39:44.428105,-1,-2,-1,-4,-10,-3,-1,-1
15:39:44.436099,2,1,-1,0,-2,-1,0,-3
15:39:44.443095,1,-1,-2,1,-1,-4,2,2
15:39:44.458086,-3,2,0,-4,-6,-4,-1,-1
15:39:44.465083,-2,-3,2,-4,-1,1,-2,-1
15:39:44.480074,-3,-3,1,1,-2,-4,-1,-1
15:39:44.481071,0,1,-1,-3,-3,-1,-1,1
15:39:44.496061,1,-1,-1,0,-1,-4,0,0
15:39:44.503057,0,-1,1,-1,3,3,1,1
15:39:44.518051,0,-1,-2,1,1,0,0,-3
15:39:44.526044,-1,-3,-3,-1,-9,0,-2,-1
15:39:44.540036,0,-2,-2,-3,-7,-1,-1,-2
15:39:44.541034,-2,-3,1,-1,6,0,-3,-1
15:39:44.556024,-2,-3,0,2,-1,-2,2,1
15:39:44.563020,1,-2,0,-1,3,3,-1,0
15:39:44.578010,-1,-1,-2,-4,-5,-2,-3,-1
15:39:44.586006,4,-1,-2,1,1,-1,0,0
15:39:44.599996,1,0,2,1,-1,-1,0,0
15:39:44.600999,0,1,0,-3,-6,0,-1,-1
15:39:44.622984,-1,1,1,-1,-4,1,2,1
15:39:44.622984,-2,-3,1,1,-4,-7,-3,-2
15:39:44.637976,-3,-1,-4,-4,1,1,0,1
15:39:44.645971,0,0,-1,-3,-4,-7,-1,-1
15:39:44.659960,-1,0,-1,-1,-4,-1,1,0
15:39:44.660961,-2,-2,-1,1,-4,-2,-1,0
15:39:44.675951,-3,-3,-3,-1,-2,-1,0,0
15:39:44.682945,-3,-3,0,-4,-2,-1,-2,-1
15:39:44.697939,0,0,-4,-7,-5,-4,-4,-2
15:39:44.704935,0,0,-1,0,1,2,-3,-3
15:39:44.720924,1,2,2,2,8,4,0,3
15:39:44.720924,1,1,-3,-1,-3,-2,-1,1
15:39:44.735915,-3,1,2,-3,-12,-3,-1,0
15:39:44.742910,0,-2,1,6,0,-1,-1,-1
15:39:44.758898,1,-3,-1,0,4,-1,-1,0
15:39:44.765897,-3,1,2,-2,1,1,1,-1
15:39:44.780884,-1,-4,-4,-4,-3,1,0,0
15:39:44.780884,-1,0,-2,-3,-8,-2,0,1
15:39:44.795877,-2,-2,-1,1,4,0,0,1
15:39:44.802874,-3,-1,-3,-5,-5,-2,-1,-3
15:39:44.817864,1,-1,-3,-2,-6,-4,2,1
15:39:44.825857,-1,-2,-2,-5,-1,0,-2,-5
15:39:44.840847,2,0,2,4,4,1,1,1
15:39:44.840847,0,-1,1,-3,-3,3,1,-1
15:39:44.855841,1,-3,0,0,8,2,2,0
15:39:44.862836,0,1,-1,0,-8,-2,0,0
15:39:44.877824,1,-2,-5,-1,5,2,-2,-1
15:39:44.885821,-2,2,-1,-1,-1,-1,0,-3
15:39:44.900810,0,0,-2,0,-1,-2,1,0
15:39:44.900810,-1,-3,-2,1,1,-1,-1,-1
15:39:44.915802,-5,0,1,-3,-1,-3,-1,-3
15:39:44.922796,-1,-1,-1,-4,-4,-2,-2,2
15:39:44.937788,2,-3,2,0,-3,0,0,0
15:39:44.945784,1,-2,2,0,0,-4,-2,0
15:39:44.959775,1,0,-1,-1,-1,0,0,-3
15:39:44.960772,-2,0,1,1,0,-1,3,-1
15:39:44.975766,2,1,2,0,4,6,2,5
15:39:44.982759,-1,-1,-2,-3,3,-3,-3,-3
15:39:44.997753,0,2,-1,0,-4,-3,0,-3
15:39:45.005747,1,-2,1,-3,-1,1,-2,-4
15:39:45.020736,-4,-3,0,-2,-4,2,-1,0
15:39:45.020736,-1,-1,-5,0,0,-5,-2,-4
15:39:45.035730,2,0,-3,-2,-2,-3,-2,-2
15:39:45.042722,5,-3,0,-2,0,0,3,3
15:39:45.057713,0,0,-4,3,1,1,-1,-2
15:39:45.065711,0,1,-1,-2,0,-1,0,0
15:39:45.080698,2,1,1,4,10,-2,0,0
15:39:45.080698,-3,-1,-1,-2,4,5,1,-4
15:39:45.095692,0,1,-1,-2,-4,-3,0,2
15:39:45.102688,5,0,1,1,-1,5,2,1
15:39:45.117676,0,-1,-1,-2,-3,-2,0,1
15:39:45.132667,-2,1,1,0,1,1,1,-1
15:39:45.140661,-2,0,-3,-2,1,1,-1,-2
15:39:45.140661,1,2,-2,-1,-3,-2,1,1
15:39:45.155652,2,1,4,-3,2,1,0,-1
15:39:45.162648,-1,1,-3,-3,-6,-6,0,-3
15:39:45.177639,-1,0,-1,1,-5,1,0,0
15:39:45.185636,3,1,0,4,9,-1,4,1
15:39:45.200624,0,-4,-1,-4,-7,-4,-3,-1
15:39:45.200624,1,-3,1,11,4,1,1,-3
15:39:45.215615,1,1,-1,-5,0,-3,-4,0
15:39:45.222611,6,-1,1,-4,-1,0,-1,-4
15:39:45.237601,-1,-1,-2,-4,-5,-2,0,0
15:39:45.245596,-1,3,-1,-1,1,-2,-2,3
15:39:45.260587,-1,1,-1,-3,-3,-2,0,-1
15:39:45.260587,0,-2,3,6,0,-3,3,1
15:39:45.282574,0,2,-3,0,5,-1,2,0
15:39:45.283573,-5,-4,-2,-4,0,-2,1,-2
15:39:45.297565,0,-2,-1,2,-2,-1,0,3
15:39:45.305559,-3,-2,0,-1,-1,-1,-1,-3
15:39:45.320553,0,-3,1,-2,-1,-2,0,-1
15:39:45.327547,-1,-2,-2,-1,3,6,1,0
15:39:45.342536,-1,-3,-1,3,-2,-2,-2,-1
15:39:45.343537,-4,-2,-1,4,-3,1,-6,1
15:39:45.357528,-1,-2,-3,-1,3,0,-2,-1
15:39:45.365525,1,2,1,-3,-2,-3,-3,1
15:39:45.380513,2,3,1,-2,1,6,2,0
15:39:45.387509,-2,-2,-2,-2,0,-5,0,1
15:39:45.402499,-2,-3,-2,-1,0,2,0,1
15:39:45.403498,2,-4,-2,3,-1,-2,-4,-2
15:39:45.417491,-4,-3,-1,2,4,-5,-1,0
15:39:45.425485,-2,-3,1,6,9,-1,-3,0
15:39:45.440476,-3,-1,-3,-5,-9,0,3,-3
15:39:45.455466,-1,-2,0,11,7,5,-2,-4
15:39:45.463464,-2,1,-2,-4,-7,-2,0,-1
15:39:45.463464,2,1,1,-4,2,2,0,-1
15:39:45.477453,-3,-3,-3,6,-1,3,-1,-2
15:39:45.485448,-3,-3,-2,-12,-10,-3,-2,-3
15:39:45.500442,4,4,19,11,14,0,2,3
15:39:45.507437,-1,-3,-20,-46,-12,-2,-2,-2
15:39:45.522424,-2,-1,-5,-8,8,4,-2,-3
15:39:45.523424,0,0,5,1,-4,-4,2,-2
15:39:45.537415,-11,-18,-71,-55,-35,-8,-8,-9
15:39:45.545410,-1,6,53,29,17,7,1,-3
15:39:45.560403,0,4,0,87,-3,-13,-4,-1
15:39:45.568402,-4,-3,68,99,38,9,-3,-4
15:39:45.583387,-4,-11,-21,6,64,6,-2,0
15:39:45.583387,19,52,127,12,97,22,11,8
15:39:45.598377,3,-29,-128,-128,-128,-30,3,9
15:39:45.605373,-29,-19,61,68,127,27,-14,-27
15:39:45.620364,27,37,20,35,-128,22,20,23
15:39:45.627359,-11,-31,-80,-128,-128,-56,-13,-11
15:39:45.650348,7,22,36,116,127,66,7,2
15:39:45.651348,-18,-32,-51,-45,-128,-98,-27,-19
15:39:45.658341,1,46,127,127,127,127,8,-6
15:39:45.673336,31,18,-57,127,-128,-121,12,27
15:39:45.680327,-62,-112,-102,-68,-128,-128,-51,-44
15:39:45.688324,-6,-21,-128,-128,-128,-30,-11,-9
15:39:45.703313,-13,28,127,127,127,127,18,-5
15:39:45.703313,58,54,-102,-128,-128,-89,22,41
15:39:45.718307,-36,-30,87,127,-128,8,-18,-28
15:39:45.725299,43,33,48,-128,-128,-49,12,34
15:39:45.740290,-26,-33,-31,127,127,-14,-15,-18
15:39:45.748288,56,127,127,127,103,127,49,21
15:39:45.763276,-69,-97,0,127,127,-84,-70,-58
15:39:45.763276,4,-10,-8,-123,-35,32,15,6
15:39:45.778268,31,43,28,-56,-65,27,20,24
15:39:45.785264,10,10,6,-21,-125,-17,1,4
15:39:45.800255,-44,-39,-28,-3,80,16,36,-1
15:39:45.808248,14,46,57,9,-71,-19,-18,-9
15:39:45.823240,-21,-9,28,119,127,20,11,26
15:39:45.823240,31,72,19,-54,-128,-30,0,0
15:39:45.845226,-20,-128,-109,-103,-128,-59,5,15
15:39:45.846227,25,61,62,-1,-111,8,10,7
15:39:45.860217,36,75,125,127,53,46,21,16
15:39:45.868214,-32,-44,-48,-62,22,-13,-10,-16
15:39:45.883202,-8,-24,-26,-80,27,5,5,-7
15:39:45.883202,-73,-128,-38,127,127,127,16,-10
15:39:45.898195,-15,-44,-92,-128,-128,-128,-28,-16
15:39:45.905189,-16,-40,-95,-36,-128,-85,-26,-12
15:39:45.920180,41,105,76,127,127,-31,14,18
15:39:45.928175,-128,-128,-113,5,-20,49,-28,-47
15:39:45.943164,1,-12,7,21,127,41,15,8
15:39:45.943164,54,127,10,-128,-128,13,-11,-1
15:39:45.958156,-35,-73,-96,-15,127,91,1,-11
15:39:45.965151,53,111,60,-128,-128,-88,-1,11
15:39:45.980142,-9,-22,4,111,7,39,-4,-6
15:39:45.988139,-13,-10,-3,-36,61,-10,-1,-10
15:39:45.995133,7,9,-25,-118,98,-5,-6,-5
15:39:46.003129,-50,-128,-99,-128,-128,-92,-14,-13
15:39:46.018120,-6,19,0,-62,-128,-24,-9,-11
15:39:46.025113,-37,-45,-53,-87,127,-39,-21,-22
15:39:46.048101,-16,1,46,85,-89,-23,-5,-11
15:39:46.048101,15,-18,-17,127,127,50,15,17
15:39:46.055097,14,15,-5,12,-128,-10,5,8
15:39:46.063093,-71,-120,-72,-26,-24,74,-20,-34
15:39:46.078082,33,45,31,-47,79,-8,9,16
15:39:46.085075,19,47,-30,-128,-128,-119,-11,-1
15:39:46.100069,-15,-10,-39,-116,-79,4,-7,-10
15:39:46.108063,15,21,-7,-40,-26,-17,7,6
15:39:46.116060,8,0,-27,-59,39,-13,-6,3
15:39:46.123055,24,48,33,-82,35,15,6,10
15:39:46.138046,15,23,40,127,127,127,15,9
15:39:46.153034,15,27,38,-24,-19,21,2,6
15:39:46.160029,-12,-12,-11,-17,-111,-26,-9,-8
15:39:46.168028,9,10,-29,-128,-128,-43,1,4
15:39:46.175020,23,45,-2,-88,-36,-25,2,7
15:39:46.183018,-8,-5,38,127,21,59,0,-4
15:39:46.198009,23,23,30,69,-128,-75,8,17
15:39:46.205004,-15,-6,-2,52,-21,-14,-11,-13
15:39:46.220995,-10,-16,-21,-103,127,6,0,-5
15:39:46.227989,-8,-21,1,127,69,58,0,-6
15:39:46.235985,-2,3,-13,-49,-128,-24,-5,-2
15:39:46.257968,-18,-28,-33,-63,-118,-39,-11,-9
15:39:46.257968,-11,-15,1,23,94,10,-3,-1
15:39:46.265967,7,23,4,-128,112,-4,-5,-5
15:39:46.279957,-3,1,2,-25,29,60,5,-2
15:39:46.287952,5,10,4,-86,-128,-32,0,-1
15:39:46.295949,-10,-12,-14,13,11,-11,-7,-6
15:39:46.309936,15,13,34,127,127,35,7,8
15:39:46.317934,-1,0,8,-10,-23,23,-1,-4
15:39:46.325929,17,24,54,116,127,-11,0,6
15:39:46.340920,24,75,82,88,21,16,4,2
15:39:46.347916,-10,-20,-21,-21,-128,-29,-2,-4
15:39:46.354911,17,29,-10,-72,-33,-29,-2,2
15:39:46.370899,4,5,4,-87,127,-19,1,0
15:39:46.377897,-14,-25,-31,2,-69,-29,-12,-8
15:39:46.385892,3,-4,5,127,127,1,5,3
15:39:46.400882,15,35,21,-63,16,-3,-3,2
15:39:46.407878,-3,-6,-7,-7,-37,4,-3,-2
15:39:46.415874,11,22,17,17,101,53,0,-3
15:39:46.430863,-17,-30,-14,63,15,34,-8,-8
15:39:46.437860,-12,-34,-57,-72,-107,-33,-5,-3
15:39:46.445854,-13,-13,-18,-78,-128,-47,-10,-10
15:39:46.460842,-5,-6,20,56,49,26,4,2
15:39:46.475833,18,35,31,15,56,12,4,5
15:39:46.475833,1,13,-6,-47,124,15,0,-3
15:39:46.490828,1,5,1,-17,-70,-3,-2,0
15:39:46.497822,-11,-17,2,41,16,22,-2,-5
15:39:46.505818,7,11,-8,-41,-64,-32,-4,4
15:39:46.520808,-30,-61,-61,-56,-22,-2,-6,-11
15:39:46.527803,0,3,6,7,82,-11,-2,-3
15:39:46.535799,7,17,27,31,30,23,4,0
15:39:46.550790,-5,-4,2,19,1,0,1,-1
15:39:46.557785,15,2,8,113,127,23,8,14
15:39:46.565781,5,14,13,-9,-23,20,4,-2
15:39:46.580771,-4,-6,-7,-23,-26,-17,-7,-4
15:39:46.587766,-13,-13,0,0,-8,1,-3,-8
15:39:46.595761,-1,0,-4,-11,-16,-3,-1,0
15:39:46.610752,-12,-27,-19,79,106,11,-3,-6
15:39:46.617748,11,18,-22,-121,27,2,5,7
15:39:46.625742,3,8,24,50,11,5,1,0
15:39:46.640734,4,4,-1,-48,-26,15,0,2
15:39:46.647730,3,2,5,-9,-35,-5,-1,1
15:39:46.662720,-13,-18,-3,12,-14,-16,-7,-13
15:39:46.670716,4,5,28,116,127,13,9,8
15:39:46.677710,3,10,9,5,8,4,-2,0
15:39:46.685703,19,37,13,6,103,-42,0,7
15:39:46.700694,4,8,-9,-79,-57,-17,4,3
15:39:46.707690,-35,-45,-24,6,-22,6,-13,-17
15:39:46.715688,-13,-70,-60,-89,127,26,3,5
15:39:46.730678,-26,-70,-9,127,-86,107,4,-6
15:39:46.737675,-67,-116,-77,127,127,69,-9,-26
15:39:46.745669,11,38,17,-84,-115,-128,-6,-1
15:39:46.760659,-6,8,-2,-3,127,83,-2,-9
15:39:46.767653,17,22,-3,-23,60,-21,4,8
15:39:46.775650,-8,-11,-12,-15,-52,0,-2,-4
15:39:46.790640,2,1,-1,-6,-19,-3,0,0
15:39:46.797635,4,2,-7,-93,-128,-44,-1,1
15:39:46.805632,2,-3,1,5,43,3,-2,-4
15:39:46.820623,-5,-5,-3,-10,-28,-12,4,-3
15:39:46.827616,5,3,-3,0,-11,5,-8,0
15:39:46.835614,-6,2,0,1,-2,-5,3,-17
15:39:46.850604,-13,-2,-2,0,5,3,2,-19
15:39:46.857597,6,-6,1,6,11,15,-65,98
15:39:46.865595,32,3,-10,-9,-18,-8,28,-12
15:39:46.880585,-3,-7,-10,-13,-18,-42,10,-7
15:39:46.887580,38,10,19,20,26,19,-128,-13
15:39:46.903569,74,0,-4,-4,24,60,-62,112
15:39:46.910566,-41,-10,9,8,-19,20,41,-128
15:39:46.917566,46,34,25,21,52,124,43,62
15:39:46.925556,-23,-19,-12,-13,-43,-27,1,-128
15:39:46.940548,-102,14,9,0,0,-20,-128,-65
15:39:46.948544,127,-11,-18,-3,1,28,-100,127
15:39:46.963534,-69,27,18,15,8,-8,41,-128
15:39:46.970529,-54,5,10,12,18,46,65,-3
15:39:46.985520,6,8,-4,17,-98,-5,35,-3
15:39:46.985520,67,20,15,47,19,44,2,25
15:39:47.000511,-16,-21,-10,29,13,-71,-43,5
15:39:47.007506,-6,9,15,63,10,20,-62,10
15:39:47.023496,127,-53,6,46,62,92,-90,74
15:39:47.030490,64,10,-34,-128,16,28,50,15
15:39:47.045480,-43,19,40,127,-128,-62,-11,-40
15:39:47.045480,-74,-104,-53,117,127,-22,12,-51
15:39:47.060473,127,82,50,-123,86,58,-10,119
15:39:47.068469,-100,23,-39,64,6,8,34,-76
15:39:47.083460,112,17,-15,-9,-4,-79,-83,127
15:39:47.090453,-88,-10,-11,-28,-64,-6,-118,-76
15:39:47.105446,70,2,-1,-16,82,-38,-36,61
15:39:47.106444,-86,-7,0,14,-10,-54,-64,-37
15:39:47.120437,18,-8,-15,44,41,27,45,107
15:39:47.128430,5,0,-9,-128,-128,-92,-63,5
15:39:47.143419,-51,-22,-9,54,127,9,55,40
15:39:47.150418,35,3,-15,-27,-22,-52,-72,58
15:39:47.165408,-47,-28,-40,70,78,7,3,-30
15:39:47.166407,-28,-9,-2,7,-49,-7,5,-10
15:39:47.187393,-5,5,8,9,20,20,2,-6
15:39:47.188392,-12,24,30,-121,-128,16,35,37
15:39:47.203385,33,16,-4,43,-3,24,53,59
15:39:47.210378,2,1,18,34,60,12,2,-4
15:39:47.225370,-16,3,-2,-8,-109,-3,-2,-27
15:39:47.233367,-17,-10,3,-10,-76,-5,-12,-17
15:39:47.248355,-3,-2,3,-117,17,-10,-6,-9
15:39:47.248355,-6,-5,-13,32,-128,-27,-8,2
15:39:47.263345,11,0,-4,25,-90,9,16,28
15:39:47.270341,37,-1,6,16,61,18,-11,23
15:39:47.285331,-30,1,1,38,-11,9,3,8
15:39:47.293329,-10,-2,-1,-20,-27,1,4,-4
15:39:47.308317,-1,3,-20,-98,-128,-33,-4,-6
15:39:47.308317,-17,-17,-3,31,-50,-16,-32,-24
15:39:47.323308,1,-2,4,-7,38,5,4,9
15:39:47.330304,-1,-4,-10,17,40,20,-9,6
15:39:47.345296,-16,1,-7,-82,-79,-1,-35,-14
15:39:47.353289,-1,-2,3,21,21,4,10,-18
15:39:47.368280,16,-3,-5,-14,-11,22,12,18
15:39:47.368280,-2,1,2,89,-1,5,2,-5
15:39:47.383273,7,4,-6,33,11,19,25,7
15:39:47.398264,-3,-2,-5,-7,12,-8,-6,-2
15:39:47.405256,7,3,-1,-11,-72,-7,6,11
15:39:47.413252,-2,-2,1,-2,46,0,-7,-8
15:39:47.428242,-6,-5,3,68,68,14,5,-1
15:39:47.428242,-14,1,-5,-43,-38,-1,-5,-4
15:39:47.443237,-16,-2,4,-1,12,-5,-16,-20
15:39:47.450230,2,-1,3,22,17,3,-3,-4
15:39:47.465220,-7,-2,-4,-69,23,7,-2,-4
15:39:47.473214,10,7,3,3,-56,-1,1,15
15:39:47.488205,-2,1,1,0,-49,4,5,-4
15:39:47.488205,0,0,-1,6,125,12,4,-2
15:39:47.503196,1,0,1,-25,43,-16,-1,0
15:39:47.510193,-1,-4,-3,15,16,-1,-5,-4
15:39:47.525182,3,1,-1,-20,-12,0,-1,-2
15:39:47.533178,3,2,-1,-2,-12,-14,-4,13
15:39:47.548168,0,-1,0,-2,7,3,4,-1
15:39:47.548168,-1,-5,3,85,19,3,-2,-9
15:39:47.563160,-3,-2,-3,23,62,-3,0,1
15:39:47.570154,2,-1,0,-1,4,-2,1,-2
15:39:47.586154,0,-1,-1,62,33,0,5,1
15:39:47.600137,0,0,-3,52,33,-1,0,-2
15:39:47.607135,-4,-5,-4,-1,3,-11,-7,-3
15:39:47.608131,0,-1,2,5,11,-1,-2,-2
15:39:47.623122,-1,-3,0,1,-3,-7,-4,-1
15:39:47.630120,5,-4,-2,-5,7,0,3,-1
15:39:47.645109,0,-2,-1,-5,1,-1,0,0
15:39:47.653104,2,1,0,0,1,1,1,-2
15:39:47.668095,2,2,3,49,71,3,0,1
15:39:47.668095,2,2,-1,23,70,0,-1,2
15:39:47.683087,1,2,0,4,7,-1,-2,-4
15:39:47.690081,2,3,2,12,-26,-1,1,3
15:39:47.706071,-2,-2,-5,11,6,-3,-4,-4
15:39:47.720067,-7,-4,-4,-4,-12,-8,-2,-3
15:39:47.728060,1,2,1,4,-3,9,6,3
15:39:47.728060,-4,0,-1,-1,-1,-4,-3,-4
15:39:47.743047,-1,0,2,1,-36,-5,1,0
15:39:47.750043,1,0,0,-20,-21,0,0,1
15:39:47.765037,-3,-2,-2,10,4,-1,-3,-1
15:39:47.773029,0,-1,-1,1,-4,-1,-2,-2
15:39:47.788020,0,0,0,-5,-9,-8,-2,-4
15:39:47.789022,4,1,2,3,6,6,1,1
15:39:47.803013,-3,1,0,-3,-8,-2,-4,-1
15:39:47.810007,4,1,2,3,-12,0,0,1
15:39:47.824996,-1,-3,-1,4,7,0,-1,-1
15:39:47.832992,2,-2,-2,-1,-7,-2,-2,-4
15:39:47.847983,-3,-3,-1,28,39,0,0,-5
15:39:47.847983,0,-3,-1,1,-12,-7,-4,-4
15:39:47.862973,-1,-2,-4,3,10,1,-2,-1
15:39:47.869968,2,0,0,-2,-4,-1,0,3
15:39:47.885962,-1,1,0,1,-1,-1,0,0
15:39:47.892954,-1,1,0,-2,-5,-2,0,0
15:39:47.907946,0,0,-1,-1,-4,2,1,1
15:39:47.907946,-3,-1,0,0,0,3,2,1
15:39:47.922936,2,1,1,2,-8,6,2,-1
15:39:47.930934,-3,-3,0,-7,-3,6,1,-1
15:39:47.945922,-1,0,2,9,14,4,2,-1
15:39:47.952920,0,0,-2,-15,-4,0,1,0
15:39:47.967911,-2,-1,-3,6,-1,-2,-2,-5
15:39:47.975903,0,-1,1,0,-2,-3,-2,-1
15:39:47.982902,1,-3,0,3,4,5,2,-4
15:39:47.990897,0,0,-1,0,2,-1,-2,-2
15:39:48.005885,1,4,6,5,8,1,1,3
15:39:48.012880,-1,-2,2,-2,-4,2,-3,-2
15:39:48.027871,2,1,3,5,-2,-2,-1,3
15:39:48.028873,0,-2,-1,1,2,-4,-4,-3
15:39:48.042864,1,-2,-3,0,-1,0,-3,-1
15:39:48.050857,-2,-1,1,-2,-9,-3,-1,-2
15:39:48.065848,-3,-4,-3,2,-1,-3,-3,-2
15:39:48.072846,0,-3,-4,-1,-1,-2,3,1
15:39:48.087834,-1,3,1,1,0,1,1,-1
15:39:48.088835,-5,0,-1,6,9,-1,-1,-3
15:39:48.102825,0,3,3,0,7,0,0,-1
15:39:48.110821,0,1,2,-3,-3,-2,-2,2
15:39:48.132809,-1,-1,-1,1,1,-2,0,-2
15:39:48.133805,-1,-2,-3,0,-6,-4,-1,2
15:39:48.147796,-1,0,1,0,-5,-4,-1,1
15:39:48.155791,1,2,2,4,0,0,-2,-2
15:39:48.170783,-1,-1,-4,-8,5,0,-3,-4
15:39:48.170783,3,3,1,-26,-31,2,2,5
15:39:48.185776,-4,0,-2,-1,11,-7,-5,-5
15:39:48.192769,1,1,-1,-5,-5,-3,-1,2
15:39:48.207761,-1,0,1,1,-3,0,0,-1
15:39:48.215757,-3,2,-1,0,-5,1,1,3
15:39:48.237741,0,-1,-3,0,3,-5,-3,0
15:39:48.238740,0,-1,0,-2,-1,-2,0,-3
15:39:48.245736,-1,-1,1,2,2,-1,1,1
15:39:48.252731,1,0,1,-2,-1,-3,-3,0
15:39:48.267722,2,-2,-1,-9,-9,-6,-2,2
15:39:48.275717,1,-2,2,-14,11,2,1,-1
15:39:48.290713,-1,-5,-2,5,7,-1,-3,-3
15:39:48.290713,0,-1,0,-4,-3,-1,2,0
15:39:48.305699,-1,0,0,-3,-5,-4,2,2
15:39:48.312696,-1,-2,0,1,-3,2,-3,-3
15:39:48.327685,-1,-4,-1,-5,-1,0,-3,-5
15:39:48.335683,2,3,3,0,5,3,4,0
15:39:48.350671,-3,-3,-3,-1,-1,-1,-5,-2
15:39:48.350671,-5,-1,0,0,4,0,-4,-4
15:39:48.365662,-1,-1,-2,-1,-6,1,1,-2
15:39:48.372659,-2,1,1,2,2,-4,-2,0
15:39:48.387650,-2,-2,-1,-5,-8,-1,2,-2
15:39:48.395643,-1,-1,-3,-34,-10,-1,-1,-2
15:39:48.410633,0,0,-1,5,-1,-4,-1,1
15:39:48.410633,2,1,-1,2,3,1,2,2
15:39:48.425627,-5,-2,-6,-18,-5,-2,-2,-5
15:39:48.432620,-2,2,1,8,1,2,1,0
15:39:48.447612,-2,0,-1,-3,1,-3,-3,-2
15:39:48.455605,-1,-1,-2,-4,-8,0,-2,-3
15:39:48.470599,-3,-1,-4,-2,2,0,0,1
15:39:48.470599,0,-2,1,1,-2,-1,-1,0
15:39:48.485590,-5,-3,-1,-3,-1,-1,-1,-1
15:39:48.500581,-3,-3,-2,-4,0,1,-3,1
15:39:48.507574,0,0,-4,1,-5,-4,-3,-1
15:39:48.515571,-4,-1,0,-3,2,0,-2,-4
15:39:48.530561,-1,1,-1,1,-1,0,4,1
15:39:48.530561,-3,-1,0,-3,0,1,-3,-5
15:39:48.545553,1,-2,0,-1,-2,1,2,1
15:39:48.552548,-3,0,-1,-4,-7,1,-2,-3
15:39:48.568540,-2,-1,-2,-6,6,-4,-2,-3
15:39:48.575534,-3,-1,0,4,2,-1,-2,-3
15:39:48.590524,2,0,-3,-5,-6,-2,0,-1
15:39:48.590524,-2,1,-1,-2,-1,-1,0,2
15:39:48.605516,-1,-3,-2,-3,-3,-4,-2,-1
15:39:48.613511,2,-2,-4,0,1,-1,1,2
15:39:48.628499,0,-1,-1,-1,3,-1,-1,-2
15:39:48.635497,-1,2,-1,2,-3,1,1,0
15:39:48.650487,1,1,0,-1,-4,1,-1,-3
15:39:48.651487,-2,-2,-1,-3,0,-1,-2,-1
15:39:48.665475,-1,-3,2,-5,-4,-1,-1,-3
15:39:48.672471,0,-1,0,-2,-4,-2,1,0
15:39:48.688463,-1,1,-1,1,1,-2,-2,-3
15:39:48.695457,1,-1,0,0,0,-1,-3,1
15:39:48.710450,1,-3,-4,-2,-3,0,-2,-3
15:39:48.710450,4,2,4,-1,-4,-1,-1,2
15:39:48.725438,-2,0,1,1,-1,1,-1,2
15:39:48.733436,0,1,-4,-4,-3,-3,-1,-2
15:39:48.748427,-2,1,-1,-2,1,0,1,-3
15:39:48.755419,3,-3,-1,2,-6,0,-2,2
15:39:48.770413,1,-2,-3,-1,-2,1,1,0
15:39:48.771413,0,2,-2,-1,0,1,-3,1
15:39:48.785404,4,1,1,6,10,4,1,4
15:39:48.793395,0,3,0,-3,-1,0,3,4
15:39:48.808386,3,-2,-1,1,7,4,-1,-1
15:39:48.815385,0,-2,0,2,-1,1,-1,2
15:39:48.830376,2,-1,-1,3,2,-4,2,-4
15:39:48.831375,-1,-2,-3,-3,-13,-2,-1,-3
15:39:48.845367,0,1,1,1,8,2,0,-2
15:39:48.860354,-2,-3,1,-1,-3,0,-2,-1
15:39:48.868353,0,-1,-1,0,-3,-3,-2,-1
15:39:48.875346,-2,2,-2,-3,-2,-1,2,1
15:39:48.890339,0,1,2,1,-2,0,-1,2
15:39:48.891338,1,1,-2,1,12,4,0,-1
15:39:48.905329,-3,-1,1,-6,-13,-1,-1,-1
15:39:48.913324,-2,-5,-5,3,7,0,1,-5
15:39:48.928314,4,1,3,4,1,-3,-1,0
15:39:48.935308,1,1,0,0,-1,1,-3,0
15:39:48.950301,1,-3,1,-3,7,-5,-5,-4
15:39:48.958294,0,0,-2,1,-1,2,-2,0
15:39:48.965290,0,-1,1,0,3,3,2,-5
15:39:48.973287,-1,1,0,-1,3,1,3,-1
15:39:48.988278,0,0,-2,2,-1,0,1,2
15:39:48.995272,-2,-1,-3,-1,0,1,0,-5
15:39:49.010263,-3,-1,2,-2,-3,-3,1,-4
15:39:49.011264,1,-3,0,-1,-2,-4,-3,-1
15:39:49.025254,-3,2,-2,2,6,2,0,-4
15:39:49.033250,-3,-3,0,1,-8,-3,-1,2
15:39:49.048241,-2,-1,-4,-4,-5,-1,0,-1
15:39:49.063232,0,0,2,2,8,2,-1,3
15:39:49.070227,4,0,1,0,3,1,-1,-1
15:39:49.078221,-2,0,-1,-3,-3,0,0,0
15:39:49.093210,-5,-2,-2,1,-3,-3,-2,0
15:39:49.093210,-3,-1,-2,1,5,-1,0,0
15:39:49.108204,-4,-4,-2,-6,-1,3,0,-2
15:39:49.115197,6,1,3,9,6,2,3,1
15:39:49.130189,-1,0,0,4,3,0,0,-1
15:39:49.138185,-1,-4,1,-1,5,0,-2,-1
15:39:49.153173,0,0,0,-2,-10,-4,0,-2
15:39:49.153173,-1,-5,-3,4,4,-5,0,-3
15:39:49.168167,0,0,-3,1,7,1,-4,-2
15:39:49.175159,1,-3,1,-2,-3,0,-5,1
15:39:49.190152,-2,2,-2,0,0,0,-1,-3
15:39:49.198148,0,-1,0,0,-5,0,0,0
15:39:49.213136,-2,-1,-3,-4,-2,-6,-2,1
15:39:49.214138,-2,1,-1,-6,3,3,3,1
15:39:49.235122,-3,0,-3,0,-5,-3,-1,-2
15:39:49.236122,2,-1,-3,-2,-3,-3,-2,-3
15:39:49.250114,-2,-2,3,-1,-3,-1,-3,-3
15:39:49.258110,-1,-1,-2,-3,-4,3,0,0
15:39:49.273104,-3,-2,-1,0,0,-1,-1,0
15:39:49.273104,-1,-2,0,0,-1,0,0,1
15:39:49.288092,-2,-2,-2,-3,1,-1,-1,-5
15:39:49.296087,3,0,-4,-4,-2,-4,0,-3
15:39:49.310076,0,1,1,0,2,-1,-2,-1
15:39:49.318074,-2,-1,-3,-4,-2,-1,0,-1
15:39:49.333064,2,2,-3,-5,-2,0,1,1
15:39:49.333064,-3,-2,2,4,-5,-5,-1,-2
15:39:49.348052,1,-2,-3,-9,-7,2,0,-1
15:39:49.355050,-3,-2,2,2,-10,-4,-2,0
15:39:49.370038,0,5,3,15,12,5,5,6
15:39:49.378034,-3,-1,-2,-3,-5,-2,-2,-1
15:39:49.393024,-2,1,-2,-5,-3,-1,-3,0
15:39:49.393024,1,-2,-1,2,1,-4,1,1
15:39:49.408016,-3,-2,0,-1,0,0,-2,0
15:39:49.416013,-2,-3,-2,-1,-1,-4,1,-2
15:39:49.431004,-1,2,-1,-4,-2,-2,-3,0
15:39:49.437996,-1,-1,0,-1,1,-2,-2,-5
15:39:49.452990,1,-2,0,2,2,0,0,2
15:39:49.453989,-1,-1,2,0,5,1,2,1
15:39:49.467981,4,1,4,1,12,4,1,2
15:39:49.474975,2,0,2,2,2,0,-3,-1
15:39:49.490967,-1,-2,-2,-3,0,1,-4,-2
15:39:49.497962,2,-2,-3,-5,-1,-2,0,-1
15:39:49.512953,4,7,5,8,9,3,3,8
15:39:49.513951,-3,-5,-3,-5,-4,-3,-4,-1
15:39:49.527940,-1,0,2,-3,-7,-5,-2,-1
15:39:49.535936,-3,-1,-6,-3,0,2,0,-3
15:39:49.550926,-6,-1,1,3,-4,-2,1,-3
15:39:49.557946,0,-2,1,-1,0,-1,1,2
15:39:49.572916,-1,-1,-2,1,4,-2,1,0
15:39:49.572916,1,0,1,1,1,-4,-4,-1
15:39:49.595900,-1,-1,-1,-2,-1,0,2,-2
15:39:49.595900,0,0,1,0,-1,0,-2,-1
15:39:49.610890,0,3,3,2,7,3,3,0
15:39:49.617885,0,-3,-2,-1,2,-1,2,-1
15:39:49.632876,0,-2,2,-2,0,-2,-2,2
15:39:49.633878,-2,1,-1,-3,-4,-2,0,-2
15:39:49.647869,-1,0,0,-1,2,4,-2,1
15:39:49.655861,-2,-3,-2,-6,-7,-3,-2,-2
15:39:49.670852,0,-1,0,1,4,0,-2,-2
15:39:49.677849,-1,-2,0,-3,2,1,-1,0
15:39:49.692841,3,4,3,5,-4,2,5,4
15:39:49.693838,0,-2,-2,-5,0,0,1,-2
15:39:49.707832,0,3,-1,4,4,3,0,1
15:39:49.715827,2,0,-1,-3,-3,-2,0,-3
15:39:49.730817,0,-1,-1,0,0,0,-1,0
15:39:49.737813,-3,0,1,1,2,-4,-1,1
15:39:49.752804,-3,-1,-1,0,-1,-2,-4,0
15:39:49.753803,-3,-2,1,5,3,1,0,-2
15:39:49.767791,0,0,-1,0,-5,-4,-2,1
15:39:49.775787,-5,-2,0,0,1,0,1,-1
15:39:49.790781,4,-1,0,5,6,2,3,3
15:39:49.797776,2,1,1,0,4,-3,-3,-1
15:39:49.812764,-2,-1,2,-1,-2,-1,-1,-1
15:39:49.813763,-4,-6,-3,-4,-5,-4,-3,-3
15:39:49.827754,-3,-1,0,-2,-1,2,0,3
15:39:49.835753,-1,-2,0,1,0,-3,0,-5
15:39:49.850742,3,1,-2,0,9,3,3,5
15:39:49.857736,0,2,-1,-2,-4,0,-2,1
15:39:49.872727,-2,-3,-3,-6,-5,-3,-1,-1
15:39:49.873726,-4,-2,-1,0,0,0,-3,-3
15:39:49.887718,-2,-1,-1,-3,0,2,-1,-3
15:39:49.895712,0,-1,0,-1,0,-1,-3,0
15:39:49.910703,-1,-5,-2,-3,-2,-1,-1,-4
15:39:49.917699,9,5,5,6,8,-4,2,6
15:39:49.932690,-1,-2,-2,-2,-5,-2,-5,-3
15:39:49.940685,-2,-3,1,-3,3,-1,2,-1
15:39:49.947682,0,0,-2,-5,-6,0,-1,0
15:39:49.955675,0,-1,0,-3,0,-3,1,0
15:39:49.970666,-1,0,-1,-1,1,0,3,-1
15:39:49.977661,0,-4,-3,-3,-5,-3,-3,-1
15:39:49.992653,1,-1,-2,-3,-4,-1,-2,-3
15:39:50.000651,-3,-2,-1,-3,-4,-2,0,-1
15:39:50.015638,2,2,1,2,4,2,0,0
15:39:50.022634,-1,-4,-3,-1,0,-1,-1,1
15:39:50.030629,0,0,-1,4,-1,1,0,2
15:39:50.037625,-1,2,0,2,-1,-1,1,0
15:39:50.052616,1,0,0,-2,-1,-3,-2,1
15:39:50.060612,-2,0,0,-1,0,-3,0,-1
15:39:50.075600,0,-2,0,1,1,0,-2,-5
15:39:50.075600,0,-3,1,-5,-6,-2,-2,-5
15:39:50.090594,0,-1,-2,1,1,1,-1,-3
15:39:50.097588,2,1,3,4,8,2,1,5
15:39:50.112579,2,2,0,-1,-4,-3,0,-3
15:39:50.120576,-1,4,-1,0,-3,-3,-2,2
15:39:50.135564,2,-1,0,-2,2,1,0,-2
15:39:50.135564,-4,-1,-1,-2,-6,-5,-2,-3
15:39:50.150557,-2,-1,-2,-4,-4,0,3,-5
15:39:50.157551,0,-2,0,-3,2,0,0,-1
15:39:50.173540,-2,-1,-4,-2,-3,-2,-1,0
15:39:50.180539,0,-2,-1,-4,-2,-3,-1,-3
15:39:50.195529,-1,-1,0,0,1,3,1,1
15:39:50.196528,-1,1,-1,-1,0,0,0,-2
15:39:50.210519,0,1,0,0,-3,-1,-1,-3
15:39:50.217513,-3,-3,-2,-4,-4,-1,0,-2
15:39:50.233506,-1,3,0,-2,-3,-7,-2,0
15:39:50.240498,-3,1,-1,-4,-2,1,1,-4
15:39:50.255492,0,-2,1,-2,-5,2,1,0
15:39:50.256488,0,-1,1,-3,-2,0,1,1
15:39:50.270480,-1,-1,0,1,-1,1,-1,1
15:39:50.277475,-3,-1,-2,-5,-5,-3,-2,-1
15:39:50.292468,0,0,1,0,1,-1,1,0
15:39:50.300464,-2,-1,2,2,-1,-3,0,-1
15:39:50.315452,2,2,4,2,7,3,1,3
15:39:50.316455,-1,-2,-2,-4,0,1,-1,-3
15:39:50.338441,1,-1,2,2,2,1,0,-1
15:39:50.338441,-1,-2,0,-1,0,0,1,-1
15:39:50.353432,-5,-2,-2,1,-3,0,-4,1
15:39:50.360426,-3,-1,-2,-1,1,-2,1,0
15:39:50.375416,2,0,1,-4,-3,-1,2,1
15:39:50.376415,-1,-1,-1,0,0,0,0,0
15:39:50.390408,1,0,2,0,2,0,0,-1
15:39:50.398404,0,1,-2,0,4,2,2,-2
15:39:50.413391,-1,1,-3,-2,1,-1,-1,0
15:39:50.420387,-3,-7,0,-3,-4,-1,-2,-1
15:39:50.435378,-3,1,-3,-1,3,0,1,-2
15:39:50.436378,-3,0,-1,-1,-4,-3,1,-1
15:39:50.450369,2,0,-1,0,-2,-2,0,0
15:39:50.458364,-3,-1,-1,0,-2,1,-4,0
15:39:50.473357,-3,-5,-3,-6,-5,1,-5,-1
15:39:50.480353,0,-3,-1,0,0,-1,-2,0
15:39:50.495341,-1,2,-4,1,-1,-2,-4,-2
15:39:50.496340,1,2,-4,-3,0,-3,-1,-3
15:39:50.510331,1,0,-1,-1,-1,1,-2,-2
15:39:50.518329,0,1,-1,1,-2,-1,0,1
15:39:50.533320,-3,0,-2,-2,-6,2,-1,-4
15:39:50.540315,-2,-1,-3,-2,0,-2,-4,0
15:39:50.555306,0,-2,-2,-2,-1,0,-5,-3
15:39:50.556303,2,-2,-1,1,0,1,2,6
15:39:50.570294,-5,0,-1,-1,-2,0,-3,-5
15:39:50.578292,-1,0,2,-1,-3,0,2,-1
15:39:50.593287,4,-2,-1,1,-1,-1,0,0
15:39:50.600278,4,-1,-1,1,-2,-4,4,2
15:39:50.615267,-2,0,0,-4,-3,-4,-2,0
15:39:50.616266,0,-1,-2,-2,-2,0,0,0
15:39:50.638252,-3,0,-1,0,-3,-3,-3,-2
15:39:50.638252,0,-5,0,-1,-1,0,1,-1
15:39:50.653243,0,1,-1,-2,1,3,-1,1
15:39:50.660238,-1,0,-2,0,2,1,-1,-2
15:39:50.675229,0,0,1,1,1,2,0,-2
15:39:50.676228,0,-2,1,1,2,-1,1,-1
15:39:50.690221,-2,-2,-1,0,-3,1,0,0
15:39:50.698217,0,2,2,0,4,1,1,-1
15:39:50.713209,1,1,-3,-3,2,-2,-1,-1
15:39:50.720204,-1,1,-1,-1,1,-4,-1,-4
15:39:50.736197,-1,1,0,1,0,-3,-1,-2
15:39:50.736197,-1,1,0,-4,1,0,-1,-3
15:39:50.750186,-3,-1,-3,-3,-3,-1,-6,-5
15:39:50.758178,1,0,0,1,4,3,2,1
15:39:50.773171,1,-1,-1,-3,2,2,0,1
15:39:50.780166,0,-3,0,-3,-1,0,0,2
15:39:50.795157,-2,1,-1,-2,-2,-2,-1,0
15:39:50.796154,0,0,1,0,-1,-1,-1,-1
15:39:50.810146,-1,-2,-4,-3,0,0,1,2
15:39:50.818143,-4,-2,-2,-4,-3,1,-3,-5
15:39:50.833134,0,-4,-3,-3,-4,-3,-3,-3
15:39:50.840127,1,-1,-1,1,-4,-5,-2,-2
15:39:50.855120,-3,-2,-3,-3,-1,0,0,-1
15:39:50.856117,2,-3,-1,1,-1,-1,2,-1
15:39:50.870109,1,-1,-1,-3,-7,-2,-3,1
15:39:50.878103,0,-1,-1,-1,-1,-5,-2,1
15:39:50.893094,1,2,0,1,-4,-3,2,1
15:39:50.900092,-4,-2,-2,1,-4,-2,-4,1
15:39:50.915081,2,1,3,4,1,2,4,1
15:39:50.916080,1,-3,-1,-3,-4,-3,-1,-1
15:39:50.930074,0,-2,-3,-2,0,-1,-1,-1
15:39:50.938066,-1,0,-2,-2,2,-4,-1,-4
15:39:50.953057,-2,-2,0,0,-2,-2,-4,-3
15:39:50.960053,-1,-3,-5,-4,-1,-2,-3,-3
15:39:50.975043,-3,-3,0,-3,-4,-1,-2,-3
15:39:50.983038,2,0,2,3,1,-1,0,3
15:39:50.998029,-2,-2,-3,-2,-3,-4,-1,-5
15:39:50.999030,0,0,-1,3,0,-2,0,-1
15:39:51.013020,-4,2,-1,1,-3,-4,-3,-1
15:39:51.020017,-2,0,1,-1,0,0,1,0
15:39:51.035009,0,-1,-2,1,0,1,1,-3
15:39:51.043003,1,0,2,-1,-2,1,-2,-3
15:39:51.057994,-1,-2,-1,0,0,-1,-2,-2
15:39:51.057994,-2,-2,-5,-5,-3,-1,0,-3
15:39:51.072985,0,0,0,1,-4,-1,0,-2
15:39:51.079978,1,-3,0,-3,-2,-3,2,-3
15:39:51.095970,-5,-2,-3,-2,-7,1,-2,0
15:39:51.102967,-4,-1,-1,2,1,-4,1,1
15:39:51.117957,-2,-1,-1,-2,-3,1,-4,-1
15:39:51.125951,-3,-3,-1,1,0,-4,2,-2
15:39:51.132948,-1,-2,1,0,1,-2,-2,0
15:39:51.140941,2,1,-1,0,-1,1,0,-3
15:39:51.155934,-2,-1,-1,0,-2,1,0,1
15:39:51.170925,-1,0,4,0,-1,-3,-2,0
15:39:51.177920,-1,-1,0,0,1,0,-3,-1
15:39:51.178920,0,0,1,-2,0,1,0,-4
15:39:51.192910,1,2,4,-1,6,-5,0,0
15:39:51.200906,0,2,2,0,3,-1,0,1
15:39:51.215896,2,-3,-1,-1,0,-3,0,-1
15:39:51.222892,3,6,3,5,6,6,1,6
15:39:51.237883,1,-2,0,0,-2,-2,4,-1
15:39:51.238883,2,1,3,-3,-5,-5,-3,-3
15:39:51.252874,0,0,-2,-2,-3,-1,0,-6
15:39:51.260866,-1,-3,0,0,-4,-2,-2,-2
15:39:51.275859,0,-1,-1,-3,0,2,-3,0
15:39:51.282854,-1,3,0,1,1,-2,-1,-1
15:39:51.297846,2,0,-1,-2,-3,-5,1,2
15:39:51.304842,-4,-3,-3,-2,-5,-3,-4,-3
15:39:51.312837,-3,1,-1,-4,-3,-1,0,-5
15:39:51.320831,2,0,1,3,1,-3,0,1
15:39:51.335822,-2,-2,0,2,-1,0,0,-1
15:39:51.342817,1,-1,-3,2,1,0,0,3
15:39:51.357808,-1,-1,-1,-2,1,3,0,-4
15:39:51.358809,0,0,0,-1,0,0,-2,0
15:39:51.372799,3,2,2,6,10,6,4,3
15:39:51.380793,-1,1,-1,-3,-2,-1,-2,-3
15:39:51.395785,-3,-1,-2,-5,-4,0,-1,-3
15:39:51.402781,-3,0,-4,-2,-1,0,-2,-3
15:39:51.417771,0,-2,0,1,-1,3,4,3
15:39:51.418771,-1,-2,-2,-1,-3,-1,-2,-3
15:39:51.440755,0,0,0,0,1,-1,0,0
15:39:51.440755,0,-3,-1,-3,-1,-3,1,-1
15:39:51.470737,1,-2,1,0,-1,1,-3,-2
15:39:51.470737,-1,-1,-1,-1,0,-4,1,1
15:39:51.477733,1,1,-2,-2,0,-1,-1,-1
15:39:51.478733,-3,-1,-3,-5,-2,-3,-4,-3
15:39:51.492724,-2,-1,-4,-2,-2,-2,-1,0
15:39:51.500720,-7,-3,-2,-4,-4,-4,-3,-5
15:39:51.515710,-1,-2,0,2,1,0,2,3
15:39:51.522706,1,-2,-2,-2,-6,-4,0,-2
15:39:51.537696,3,0,2,-1,0,-4,1,3
15:39:51.538696,-1,-1,-2,2,-2,1,1,-1
15:39:51.552687,-2,-3,-1,-1,-3,-2,-3,-2
15:39:51.560681,1,-1,3,1,5,1,0,1
15:39:51.575673,0,0,-2,2,0,0,1,1
15:39:51.582668,-3,-2,1,-1,2,-1,0,-2
15:39:51.597660,-2,-4,-1,-2,-6,-3,-3,-6
15:39:51.598659,-3,-1,-1,-4,-3,1,1,-1
15:39:51.612650,1,-1,0,1,4,6,2,2
15:39:51.620645,1,0,-3,-2,1,5,3,2
15:39:51.635636,-1,-6,-5,-2,-3,1,-3,-3
15:39:51.642629,2,0,0,-1,2,2,1,-1
15:39:51.657620,-4,-4,-1,-3,-3,-2,-1,-2
15:39:51.658621,-2,-2,-3,0,0,1,1,-1
15:39:51.680605,1,0,0,2,1,2,-1,1
15:39:51.680605,-5,-2,1,-3,0,0,-2,0
15:39:51.695598,-2,1,0,-3,-2,-3,3,-2
15:39:51.702592,-1,2,0,-1,0,3,-2,2
15:39:51.717584,1,-1,0,-3,-2,2,-2,-1
15:39:51.718583,0,0,1,-3,-3,1,1,-2
15:39:51.732576,-4,-3,-2,-2,-1,2,-2,1
15:39:51.740570,-4,-4,0,0,0,-1,-1,-3
15:39:51.755562,-2,-2,-1,-2,-4,-1,-1,-5
15:39:51.762557,0,-1,-1,0,-1,-2,-3,-1
15:39:51.777547,-3,1,0,2,0,-2,-1,0
15:39:51.778548,-2,-4,-4,-7,-6,-2,-3,-1
15:39:51.792537,2,0,-1,-1,-3,1,1,-3
15:39:51.800534,2,1,1,-1,2,-2,-2,0
15:39:51.815524,0,2,-2,-2,-1,-4,-3,-1
15:39:51.822519,1,-1,2,2,2,2,1,2
15:39:51.837510,0,0,0,-2,0,1,-3,-1
15:39:51.838508,1,-1,-2,-4,-1,2,-2,0
15:39:51.853501,-1,0,-2,2,1,-2,-1,0
15:39:51.860496,-1,-3,2,-1,-5,-3,-2,-3
15:39:51.875486,1,-2,1,2,5,6,3,1
15:39:51.882483,-3,-1,1,-2,-2,0,-2,0
15:39:51.897474,0,-1,-3,-5,-4,-6,-3,-3
15:39:51.898471,-3,-2,-1,-1,1,-1,-2,2
15:39:51.920459,0,0,-2,-1,-1,-2,1,-3
15:39:51.921459,-1,0,-1,2,-4,1,0,1
15:39:51.935450,-2,-3,-2,-2,-2,-1,-1,-5
15:39:51.942442,-1,1,-2,2,2,-4,-1,2
15:39:51.958433,1,2,0,-1,2,1,0,0
15:39:51.965432,-1,0,1,1,0,1,2,-1
15:39:51.988417,1,0,-1,2,2,2,0,0
15:39:51.988417,-5,-4,-3,-5,-5,-2,0,-7
15:39:51.995413,-1,0,-1,1,-3,1,-1,-2
15:39:52.002409,-2,-1,-4,-3,-1,-2,-3,-4
15:39:52.018396,-2,-4,2,1,0,2,-1,-1
15:39:52.025392,0,1,1,0,3,-1,-2,3
15:39:52.040384,0,-1,0,-2,-2,-6,0,1
15:39:52.041382,0,-1,-1,-2,1,2,0,-4
15:39:52.055376,0,0,-1,-2,-3,-2,-2,-4
15:39:52.063372,1,-2,-2,1,-2,4,0,2
15:39:52.078360,-3,0,0,2,-3,-3,-3,-3
15:39:52.085357,-4,-2,-2,-2,-1,2,-2,-2
15:39:52.108340,2,-1,1,-1,0,3,2,0
15:39:52.108340,-4,-4,-3,-1,-2,-1,-2,-1
15:39:52.116337,1,1,1,1,-4,-4,0,1
15:39:52.123334,-2,2,-1,-2,-2,3,-2,-1
15:39:52.138324,0,-3,-4,-2,-4,-1,-1,0
15:39:52.145318,-3,1,-1,0,-1,-3,-4,2
15:39:52.160310,0,-3,-1,-1,-2,-5,-2,0
15:39:52.161309,3,4,4,6,4,2,7,2
15:39:52.175299,-3,-1,-1,-5,0,-2,-4,-2
15:39:52.183293,-2,-3,0,1,2,-1,0,1
15:39:52.205283,-1,0,0,-1,-1,0,-2,0
15:39:52.206282,-5,-3,-1,-4,1,0,-3,-1
15:39:52.220273,0,-3,-2,-2,-1,0,0,1
15:39:52.221270,0,-3,1,-3,0,-1,-2,-1
15:39:52.235261,1,0,-2,1,-1,2,-1,-1
15:39:52.243256,1,-3,-1,-2,-1,-1,0,0
15:39:52.258247,-3,0,-3,1,0,-5,-2,-2
15:39:52.265243,-4,0,0,4,1,3,3,1
15:39:52.280234,-1,-4,-1,-3,-3,-1,-1,-5
15:39:52.281233,-2,-1,0,2,1,-2,-3,-1
15:39:52.295225,-3,4,0,2,-1,-4,-1,1
15:39:52.303219,0,0,-4,-2,0,-2,-2,-5
15:39:52.318213,-3,1,-2,-2,-6,-2,1,0
15:39:52.325207,-1,-1,-2,-1,0,-3,-3,-5
15:39:52.340196,-1,-2,-1,-2,0,0,-1,-1
15:39:52.341199,-1,0,-3,-3,-2,-2,0,-5
15:39:52.355188,2,1,1,3,3,3,1,-1
15:39:52.363182,-2,-5,-5,-6,-4,-3,2,0
15:39:52.378173,-1,-1,-2,-1,-2,2,-3,0
15:39:52.385168,-4,-3,-1,-2,-1,0,-5,-3
15:39:52.400160,-3,1,-5,-2,-1,-3,-1,0
15:39:52.408154,1,-1,-1,0,0,0,0,2
15:39:52.416153,0,0,0,1,0,-2,1,-1
15:39:52.423148,-3,0,2,-1,-3,-2,0,0
15:39:52.438136,-1,0,-4,-3,-4,0,1,-3
15:39:52.445132,1,-1,-1,-1,2,4,0,-3
15:39:52.460122,-4,-3,-3,0,-4,-1,-4,-2
15:39:52.461121,1,0,0,-3,-1,-4,-1,-2
15:39:52.475113,1,-2,-1,1,2,-2,-4,3
15:39:52.483107,4,2,2,3,1,1,3,1
15:39:52.498098,1,0,3,1,0,2,-1,1
15:39:52.505094,1,1,1,-1,0,2,0,0
15:39:52.520086,1,-3,-1,0,2,0,-1,1
15:39:52.521085,-4,-4,-1,-2,-4,-3,2,-5
15:39:52.543070,0,-1,2,-2,-1,1,-1,-3
15:39:52.543070,0,-4,-4,-3,-1,1,-1,-4
15:39:52.558061,3,4,2,3,6,1,3,5
15:39:52.565057,0,-2,-2,-2,0,2,-1,5
15:39:52.580047,0,-1,-2,-4,-4,-1,-1,0
15:39:52.581048,-1,1,-2,-1,-1,-1,-2,-2
15:39:52.603034,2,2,2,6,6,3,3,4
15:39:52.603034,1,-5,-1,-1,-1,-1,-5,3
15:39:52.618024,-1,0,0,2,1,0,2,1
15:39:52.626024,-1,3,-1,2,-1,-1,-3,-1
15:39:52.641011,-5,-2,1,-3,-3,2,1,-2
15:39:52.641011,-1,1,0,0,-4,-2,-3,0
15:39:52.662996,-2,1,0,2,2,-1,-2,1
15:39:52.662996,-2,-2,-1,-2,-2,-1,0,1
15:39:52.677988,-1,2,0,-3,1,-3,1,0
15:39:52.685982,1,-2,0,-2,1,-1,-2,-1
15:39:52.699975,-1,0,-1,2,-5,-2,-1,0
15:39:52.700973,-4,0,0,-1,1,-3,-2,-1
15:39:52.722959,1,1,-1,-3,1,0,1,-2
15:39:52.723959,0,0,3,0,1,0,1,-1
15:39:52.737950,0,1,2,3,2,3,1,4
15:39:52.745945,-3,-4,-6,-2,-1,2,0,-1
15:39:52.759937,0,-1,3,4,9,0,2,4
15:39:52.760935,-2,-2,1,-2,-4,-1,-3,1
15:39:52.782922,-2,0,0,-3,-2,-3,-2,-1
15:39:52.783921,-2,2,-1,0,-1,-1,1,0
15:39:52.797912,-1,-1,0,1,0,-3,-2,0
15:39:52.804910,-1,2,2,0,1,-2,-1,-2
15:39:52.820901,-3,-6,-3,-3,-3,-2,-2,-4
15:39:52.820901,0,-2,-2,-2,-2,-2,-2,0
15:39:52.842887,-3,1,-1,-1,-3,-4,-1,-3
15:39:52.843884,4,0,-2,1,1,2,0,1
15:39:52.857878,-3,1,-2,-2,0,0,1,-1
15:39:52.865873,0,-1,0,-1,-4,3,-1,-2
15:39:52.880865,1,-1,-3,-1,-2,-2,-2,-1
15:39:52.887860,1,1,2,3,2,-2,2,2
15:39:52.910845,-2,0,-1,0,-1,1,-1,0
15:39:52.910845,0,-3,0,-2,-4,-1,-2,0
15:39:52.917841,-2,-1,-3,0,4,5,0,-1
15:39:52.925836,2,-2,-2,-1,-4,-2,1,0
15:39:52.940827,-1,-1,-2,-2,-3,-1,-2,-2
15:39:52.947823,-3,1,2,-1,0,-1,1,-1
15:39:52.962813,2,-3,-3,0,-4,-4,0,-3
15:39:52.963813,-2,-1,0,-4,-3,2,-1,-2
15:39:52.977803,1,-5,-1,0,-1,-4,-6,0
15:39:52.985799,0,-1,-2,1,2,2,-3,-2
15:39:53.000789,-1,-1,2,-1,-5,-11,-3,1
15:39:53.007785,-2,-2,-1,-3,-3,0,0,1
15:39:53.022776,0,-1,-1,-2,-2,-1,-2,-1
15:39:53.023775,4,-1,-2,-3,-5,0,2,1
15:39:53.037766,-2,-5,-1,-2,-2,-2,0,-5
15:39:53.045761,-1,-2,-1,0,-3,-1,0,1
15:39:53.060751,2,-3,1,3,3,3,-1,2
15:39:53.067748,-3,-2,-2,0,2,-2,-2,0
15:39:53.082739,1,0,0,4,4,3,2,0
15:39:53.083735,1,-1,-2,-2,-3,-2,-3,0
15:39:53.097726,0,-7,-1,2,-2,-3,-1,-2
15:39:53.105721,-3,-1,-2,1,-2,-2,-1,0
15:39:53.120712,1,0,0,-1,0,-2,-1,-1
15:39:53.127708,-1,-1,-3,-4,-5,-2,-2,-4
15:39:53.142698,-2,-1,1,-1,-3,0,-3,2
15:39:53.143701,-1,-2,-3,0,-3,-3,-3,-3
15:39:53.157692,-1,1,0,2,-2,-2,-3,-2
15:39:53.165685,0,0,-1,3,0,-2,1,-2
15:39:53.180676,-3,-1,-4,-2,0,-1,0,2
15:39:53.187670,4,1,3,0,-3,0,1,1
15:39:53.202665,-1,-1,0,-5,0,2,-1,-3
15:39:53.203662,-1,0,-2,1,-1,0,-4,1
15:39:53.217652,-4,-2,-3,-3,-1,2,0,-3
15:39:53.225650,1,0,0,0,0,0,-1,-1
15:39:53.240638,0,-3,0,-1,-4,-9,-2,0
15:39:53.247633,-1,-3,-1,-1,-1,-2,-4,1
15:39:53.262625,2,0,-2,1,-1,2,-1,-1
15:39:53.263624,1,1,2,-2,-4,-1,-5,-1
15:39:53.277614,-1,-2,-3,-1,1,0,-2,-3
15:39:53.285613,0,-2,1,0,-4,-5,-1,1
15:39:53.300604,-2,-4,-2,-2,0,0,-4,-3
15:39:53.307597,-2,-2,1,-1,2,-1,-2,2
15:39:53.322590,0,0,-3,-4,0,0,-1,2
15:39:53.324607,1,-1,-1,0,0,-2,-2,1
15:39:53.337580,0,1,-1,-1,1,0,-2,-3
15:39:53.345575,-3,-3,-1,-1,-1,-3,0,-2
15:39:53.360564,-4,-2,-1,-3,1,1,1,-2
15:39:53.367560,-1,0,0,-2,1,-1,-2,-1
15:39:53.382552,0,-3,2,-1,-5,-5,-3,2
15:39:53.383552,2,-2,-4,0,-1,-1,-2,-3
15:39:53.398543,-1,2,-4,2,3,1,-3,-1
15:39:53.405539,-1,-1,-4,-4,-3,-3,-1,0
15:39:53.420529,-1,2,0,-2,2,-2,2,-1
15:39:53.427522,-1,1,1,2,-1,1,0,0
15:39:53.442514,-3,-1,-4,-4,-4,-6,-3,0
15:39:53.443512,0,0,-2,3,0,-1,-1,0
15:39:53.458509,-3,-2,-1,-1,-4,-3,1,-3
15:39:53.465501,-1,-1,1,-1,-2,-1,0,2
15:39:53.480492,-1,-2,1,-2,-3,-4,-1,-1
15:39:53.487484,-2,-1,1,0,-2,1,-1,-2
15:39:53.502478,0,-3,-2,-1,-3,-2,-1,-1
15:39:53.503478,-2,0,1,0,0,0,0,-3
15:39:53.518468,-1,-2,-2,1,2,1,2,-1
15:39:53.525463,-2,-4,-3,-6,0,-2,0,-1
15:39:53.540452,-2,-1,-1,1,-2,1,-1,0
15:39:53.548448,-4,1,1,-5,-3,-5,0,1
15:39:53.563438,2,-2,0,-1,-1,0,-5,-3
15:39:53.563438,1,0,-2,1,0,-4,-1,-2
15:39:53.578430,0,-3,-1,-3,0,-3,-1,-1
15:39:53.585427,3,1,0,0,4,3,3,6
15:39:53.600418,-2,3,2,2,5,4,3,2
