timestamp,emg1,emg2,emg3,emg4,emg5,emg6,emg7,emg8
16:24:12.843173,1,-1,-1,0,-5,0,0,-1
16:24:12.857165,1,1,0,11,17,4,-2,-1
16:24:12.857165,0,-3,-1,-10,-8,-1,10,-2
16:24:12.872156,0,1,2,5,-1,-1,-1,1
16:24:12.879150,-1,-3,-1,-5,-5,-5,-1,1
16:24:12.894141,-2,2,-1,-3,2,1,1,0
16:24:12.902138,1,0,-3,-4,-1,0,-1,0
16:24:12.917127,0,2,-1,-2,-3,-5,-3,-1
16:24:12.918127,-3,-1,-1,-3,0,10,9,0
16:24:12.932118,-2,2,2,-1,-3,4,-7,-4
16:24:12.947108,-2,0,-3,-1,-4,2,7,10
16:24:12.954104,-1,-1,-3,-2,-1,-4,-1,-3
16:24:12.962099,-3,-3,-1,-2,-2,0,1,1
16:24:12.976099,2,0,-1,-3,2,-3,0,-1
16:24:12.977089,-1,-3,1,0,-5,0,12,4
16:24:12.999076,0,3,-1,-1,3,-1,0,1
16:24:13.000077,-1,0,1,-2,1,-1,-2,-1
16:24:13.014067,1,0,2,-3,0,-3,-4,-1
16:24:13.022076,-1,-2,-2,-1,0,5,3,0
16:24:13.037054,-2,-4,-1,-2,-1,-4,7,-1
16:24:13.044049,2,-1,0,1,-3,-5,-6,-1
16:24:13.052047,-2,-1,0,-3,-2,0,2,1
16:24:13.059040,0,-3,0,-2,0,-5,-4,-3
16:24:13.089024,4,-1,0,2,-1,4,3,7
16:24:13.090023,1,1,1,3,1,-4,-3,0
16:24:13.112010,-1,-2,-5,-5,-2,-2,0,-2
16:24:13.113009,0,2,-3,-1,-1,-5,-1,-1
16:24:13.119005,-4,0,2,-2,1,-2,3,1
16:24:13.120004,3,-3,-1,-2,-3,-5,-1,4
16:24:13.134995,2,2,0,-2,0,2,3,2
16:24:13.141992,-6,-2,0,-2,-1,-3,1,1
16:24:13.163975,-3,-2,-1,1,1,0,0,-3
16:24:13.164975,-3,0,-1,-2,-2,1,-2,2
16:24:13.178965,0,-3,0,-4,-5,0,-4,-1
16:24:13.179966,0,-4,-3,-1,-1,-1,4,2
16:24:13.194959,-2,-2,-1,-2,-3,-1,-5,-1
16:24:13.209947,-1,0,0,1,-4,-4,-9,-5
16:24:13.216943,-1,-2,-4,0,2,0,-3,3
16:24:13.224937,0,0,-1,-5,1,6,-1,1
16:24:13.238931,-1,-1,1,-2,-2,1,-5,2
16:24:13.239928,-4,-2,-4,-2,-3,-3,3,-2
16:24:13.254919,-1,-2,-1,-1,-3,-4,3,-1
16:24:13.261918,1,1,0,-2,1,0,1,2
16:24:13.276908,-2,-1,-1,0,-3,-1,-1,-2
16:24:13.284904,-4,1,-1,-1,1,-3,0,0
16:24:13.299893,-4,-4,1,1,2,1,1,3
16:24:13.299893,-1,0,-2,1,3,-4,-4,-4
16:24:13.314883,-1,1,-1,1,0,3,-2,-1
16:24:13.321881,-1,1,0,-2,1,0,3,3
16:24:13.336871,-2,-1,1,-2,-1,-2,-1,1
16:24:13.344867,-2,-3,-2,-1,1,1,-4,-5
16:24:13.359856,-2,0,-3,-4,-2,-7,1,-3
16:24:13.359856,-4,-2,-3,-2,-1,-1,-5,0
16:24:13.389837,0,-1,2,2,-1,-3,2,0
16:24:13.389837,0,-1,-1,-1,-4,2,-1,1
16:24:13.396835,-1,1,1,0,1,1,-4,1
16:24:13.404827,0,1,-2,1,-3,2,1,-1
16:24:13.419820,-3,2,0,-1,0,1,-2,-6
16:24:13.426816,-2,-1,-1,-1,1,-1,6,6
16:24:13.434811,0,-2,0,-2,0,-2,0,0
16:24:13.441807,-1,0,-3,-4,0,0,4,-2
16:24:13.456798,0,-1,-2,0,1,-1,0,-3
16:24:13.471787,0,-2,-1,-2,2,0,-2,0
16:24:13.478785,1,0,0,-1,0,-2,-1,-1
16:24:13.486779,1,-1,-1,-2,-3,-4,12,5
16:24:13.494774,1,-1,1,0,1,-3,-9,-2
16:24:13.501770,-1,-3,0,-3,1,-4,8,1
16:24:13.516761,-2,1,0,-3,-3,3,-6,2
16:24:13.524753,-4,-4,-2,-1,-1,0,0,0
16:24:13.539747,0,0,-1,-2,-3,-2,1,0
16:24:13.546742,-1,-3,1,-1,-2,1,3,1
16:24:13.554737,-1,-2,-2,0,1,-2,-5,-4
16:24:13.561733,-1,1,3,3,0,0,2,2
16:24:13.576723,2,0,1,1,0,1,-1,0
16:24:13.584719,0,-2,-3,-1,0,2,-1,0
16:24:13.606705,-1,-1,-3,1,0,-3,-2,-1
16:24:13.607705,-1,3,-1,0,-1,2,-6,2
16:24:13.614706,0,-2,0,-2,1,4,9,4
16:24:13.621696,1,-2,0,2,-3,-3,-1,-2
16:24:13.636684,-1,-2,1,-3,-6,-4,-1,-1
16:24:13.644679,0,-2,-1,0,1,2,2,2
16:24:13.659673,-3,-2,2,-1,-2,0,-2,-4
16:24:13.660669,-1,-1,-1,1,0,2,5,2
16:24:13.674663,-1,-1,0,-2,-4,-3,-4,-3
16:24:13.689654,-1,-2,-2,-1,-1,1,0,-3
16:24:13.696647,1,-2,-1,-2,3,-1,-1,-1
16:24:13.704645,-3,1,-2,2,-3,-5,-1,2
16:24:13.719633,6,-1,-4,-3,-1,-6,-10,0
16:24:13.719633,2,-2,-2,-1,-4,-2,5,1
16:24:13.734625,-2,-1,3,0,1,-1,-1,-3
16:24:13.741620,-2,-3,-4,1,0,-1,-2,1
16:24:13.756611,1,1,0,1,0,-2,4,0
16:24:13.764608,2,2,2,2,4,-2,0,2
16:24:13.779596,-3,-2,0,1,0,-3,-4,-3
16:24:13.779596,-1,-1,-3,-2,-4,1,3,5
16:24:13.794590,0,-4,1,0,0,4,-3,-1
16:24:13.802590,0,-4,-2,-3,-3,-4,-1,0
16:24:13.817573,0,-2,-1,-1,-2,-3,0,-3
16:24:13.824571,-1,-3,-1,-2,-1,3,9,-5
16:24:13.839562,-1,-1,-2,-3,0,-2,0,-3
16:24:13.846556,0,-1,-1,-1,-2,-6,1,6
16:24:13.854550,0,3,0,-2,2,0,3,-3
16:24:13.861545,-2,-2,-5,-1,-4,-4,3,1
16:24:13.877539,3,1,-1,-1,0,-1,1,0
16:24:13.884535,0,0,-1,-3,-2,-1,1,0
16:24:13.900524,-4,3,-1,-2,-4,0,0,-3
16:24:13.900524,0,3,0,1,0,1,-1,-4
16:24:13.914513,0,0,-1,-1,-1,0,3,0
16:24:13.922511,-2,0,1,5,0,-3,2,0
16:24:13.937499,0,1,-3,-1,0,1,-1,-1
16:24:13.944498,-2,0,0,0,-1,-7,7,4
16:24:13.959488,-3,-1,-1,-2,-2,-3,-2,-3
16:24:13.967481,3,2,-1,2,2,1,1,13
16:24:13.974476,1,1,-1,-1,3,8,6,1
16:24:13.982472,-2,0,-1,-2,0,-2,-1,-2
16:24:13.996465,-1,0,-2,-1,0,0,-1,-4
16:24:14.004458,-1,0,1,-1,1,-2,-3,-2
16:24:14.019447,0,1,1,-1,0,-1,1,4
16:24:14.026491,-2,-3,-2,-1,0,-5,-1,-3
16:24:14.041435,-3,0,-1,-2,1,-4,-11,0
16:24:14.042435,1,2,0,0,1,2,1,5
16:24:14.056428,0,-1,-3,-1,0,-1,-2,-3
16:24:14.064423,-4,-1,-3,-3,-2,-1,4,0
16:24:14.079414,-1,-1,-3,-2,-1,-4,-14,-3
16:24:14.087407,-2,1,-1,-1,-3,-3,0,-2
16:24:14.101399,-2,-2,-2,-3,-3,2,-2,-5
16:24:14.102397,0,-1,0,0,-1,-1,6,5
16:24:14.117392,-5,-2,-2,-3,4,0,-12,-1
16:24:14.132380,2,0,0,1,-1,-1,2,-3
16:24:14.139375,-2,0,-1,-2,-3,0,0,-2
16:24:14.147371,1,0,1,0,0,3,0,1
16:24:14.161362,-1,-1,0,-1,-1,-1,0,0
16:24:14.162361,1,-1,2,0,0,-1,0,1
16:24:14.184350,0,2,-2,-1,-1,-2,-4,1
16:24:14.185349,1,-4,-2,-3,-2,-4,2,-1
16:24:14.200340,-3,0,-3,-3,-5,1,-1,-4
16:24:14.207336,0,1,-3,-2,1,-3,-1,-2
16:24:14.221324,-3,-1,-2,-1,-2,3,3,-1
16:24:14.222324,0,-3,1,0,-2,1,3,3
16:24:14.237315,0,-4,-2,-1,-6,-4,2,2
16:24:14.244313,-3,1,-3,0,-1,0,-1,-4
16:24:14.260300,-2,-2,-1,-3,-3,0,0,-3
16:24:14.274294,-3,-5,-1,0,0,-1,0,-3
16:24:14.281287,0,2,-2,1,-1,0,-2,-1
16:24:14.282288,2,-1,2,0,1,2,-1,2
16:24:14.304273,-3,-2,1,-2,-4,-1,-4,-4
16:24:14.305275,0,1,-1,0,2,0,1,4
16:24:14.319267,1,3,-1,1,-3,-2,-7,4
16:24:14.327262,0,0,-4,-5,-1,-4,2,-2
16:24:14.342249,0,-1,-2,0,3,2,2,3
16:24:14.343251,-6,-1,-3,-2,-2,-1,5,-3
16:24:14.357241,2,1,0,2,1,-2,-3,2
16:24:14.364239,2,0,0,-2,-1,0,3,3
16:24:14.387225,-1,-2,-1,2,2,6,3,-1
16:24:14.394221,-1,-3,-1,0,-3,1,7,11
16:24:14.402213,-3,2,0,0,1,-3,-4,1
16:24:14.403215,0,-2,0,0,0,-3,1,-3
16:24:14.417207,-4,0,-2,0,-3,-3,0,1
16:24:14.424201,3,3,-4,-1,1,3,3,3
16:24:14.439192,-2,3,-1,-2,0,0,1,3
16:24:14.447185,2,2,1,-4,-6,-4,1,-3
16:24:14.462179,0,0,0,3,2,4,1,-1
16:24:14.462179,-2,-2,-1,-2,-1,0,-1,0
16:24:14.477170,0,-2,-2,1,-4,-3,1,-1
16:24:14.492161,-4,-2,1,2,3,0,-1,-2
16:24:14.499153,1,0,-3,-4,-1,2,-2,-2
16:24:14.507152,0,2,0,-1,-1,-3,-9,1
16:24:14.522143,-3,-2,-3,-1,-2,-6,-16,-1
16:24:14.523140,-1,0,-2,-3,0,0,1,-1
16:24:14.537132,2,0,3,0,2,-3,4,7
16:24:14.544126,-4,-1,-2,-4,-1,-3,-1,-2
16:24:14.560118,0,2,2,0,-1,-4,1,-2
16:24:14.567114,-7,-3,-1,0,-1,-1,-1,-3
16:24:14.582102,9,1,-1,3,1,0,-4,-2
16:24:14.583102,1,2,3,-3,0,4,-1,1
16:24:14.597096,-1,-1,-1,-1,-1,-3,-1,-5
16:24:14.612087,-7,-6,-1,-2,0,-4,1,-4
16:24:14.620080,0,-1,0,1,-1,0,0,-2
16:24:14.627078,-1,-5,-2,-2,1,2,-3,-2
16:24:14.642065,3,0,1,3,-1,-3,-1,0
16:24:14.643065,1,-1,-2,-3,-3,-1,2,0
16:24:14.657059,-5,-6,-1,-4,-4,-1,-3,1
16:24:14.664052,3,1,0,7,2,2,3,3
16:24:14.679042,2,-4,6,9,-4,-3,-1,1
16:24:14.687040,-5,-5,-23,-2,2,-2,-2,0
16:24:14.702029,0,2,7,-16,-1,-2,-2,0
16:24:14.703027,-1,-2,10,21,6,-1,-2,1
16:24:14.717019,-2,1,-10,-2,2,1,-3,-3
16:24:14.724015,-7,-3,3,4,-4,-10,-3,-3
16:24:14.753997,1,-1,3,-21,-4,-1,0,-3
16:24:14.754998,0,-3,-13,-1,0,-1,3,2
16:24:14.761991,-3,-5,2,-2,2,-2,-1,-2
16:24:14.762992,1,2,4,-4,2,4,2,0
16:24:14.776985,0,-1,-4,-3,-23,-3,-2,0
16:24:14.784980,-2,-5,8,34,6,0,-2,-3
16:24:14.799968,-3,1,-5,3,-19,-6,-2,-3
16:24:14.806967,2,1,-10,-15,4,0,1,0
16:24:14.821958,-3,-1,-2,1,6,4,1,0
16:24:14.822957,1,-1,-6,5,-8,-4,2,-1
16:24:14.836948,0,5,29,6,4,0,-1,-2
16:24:14.843944,-4,-6,-8,-14,-14,-3,1,-5
16:24:14.859934,-5,-1,3,16,1,0,-3,0
16:24:14.866930,-3,-3,-8,-37,-3,-4,0,-5
16:24:14.881917,0,1,8,19,5,-2,-1,-3
16:24:14.882917,1,1,-5,13,1,-2,-1,-3
16:24:14.896911,-6,-4,18,42,-25,-6,-2,-4
16:24:14.904903,3,3,-12,-53,2,7,4,3
16:24:14.919898,3,5,39,19,3,-1,0,1
16:24:14.926893,-1,1,9,33,-25,-6,-1,4
16:24:14.941884,-6,-5,-24,-1,5,3,-2,-5
16:24:14.956874,2,0,6,-2,-74,7,4,1
16:24:14.963868,6,24,44,56,60,12,2,2
16:24:14.964869,-2,-15,-23,-56,58,6,-1,1
16:24:14.979858,-5,-4,-18,127,127,10,-10,-9
16:24:14.986854,-4,-8,4,-27,127,20,1,1
16:24:15.001847,-4,-26,-128,-128,-54,-69,-6,-1
16:24:15.016837,-18,-1,127,83,-101,-55,-16,-17
16:24:15.023831,-11,-4,-65,127,127,81,-3,-7
16:24:15.024832,25,20,-64,-128,-128,8,23,25
16:24:15.039820,-13,-42,-128,26,-128,-128,-24,-16
16:24:15.046819,-14,8,127,127,127,80,-3,-17
16:24:15.061810,15,19,4,91,110,-76,-10,13
16:24:15.069802,-34,-48,21,-128,-16,17,-10,-12
16:24:15.084794,62,88,127,107,-54,41,50,43
16:24:15.084794,4,24,-110,127,23,-9,-2,-6
16:24:15.106782,-94,-128,-19,33,127,-64,-63,-59
16:24:15.107779,86,127,127,73,105,114,54,45
16:24:15.121772,-39,-70,-13,53,127,-56,-29,-21
16:24:15.129767,5,-4,-4,127,-38,-3,12,10
16:24:15.144757,13,31,24,-128,87,28,8,3
16:24:15.144757,31,68,43,-100,-38,6,10,10
16:24:15.159750,-41,-79,-85,-89,-87,-29,-23,-27
16:24:15.174740,26,67,32,-96,-29,20,10,10
16:24:15.181736,-26,-66,-95,-116,-9,-36,-8,-9
16:24:15.189728,0,7,14,-113,-128,-4,-3,-6
16:24:15.204718,-7,-7,86,127,-15,13,0,-1
16:24:15.205726,31,94,51,-64,-34,-41,-12,3
16:24:15.219712,-51,-99,-110,-124,-62,-34,-19,-23
16:24:15.226707,-3,-12,14,73,27,14,1,0
16:24:15.241696,-1,13,23,27,9,21,-4,-9
16:24:15.249694,11,2,-18,6,-80,0,5,5
16:24:15.264682,14,-3,32,127,127,64,4,10
16:24:15.264682,38,72,47,-43,-79,-33,4,10
16:24:15.279676,2,-8,-32,-128,66,-24,-1,-1
16:24:15.286668,7,19,41,127,127,85,20,16
16:24:15.302662,15,27,0,-128,-27,-13,1,2
16:24:15.309657,0,28,50,5,-61,0,-3,-8
16:24:15.324645,-8,-24,-58,-128,-75,-21,-6,-2
16:24:15.324645,31,76,58,-58,-128,-28,0,6
16:24:15.339639,-19,-48,-47,-71,-21,-2,-9,-15
16:24:15.346631,6,16,15,-4,-12,-5,-1,-1
16:24:15.361622,-6,-8,23,60,21,1,-4,-6
16:24:15.369620,5,17,2,-40,-56,-7,-2,-1
16:24:15.384608,-14,-26,-11,55,2,3,-4,-9
16:24:15.384608,8,14,-6,-66,25,5,4,5
16:24:15.399603,-3,5,-3,-52,-85,-13,0,-3
16:24:15.414592,-8,-9,-11,-23,-19,2,-3,-1
16:24:15.421586,-4,-18,-7,-16,-17,-25,0,2
16:24:15.429583,9,21,36,78,91,10,2,1
16:24:15.444574,3,18,11,-57,-27,2,2,1
16:24:15.452570,6,30,33,0,16,6,-3,-4
16:24:15.459562,7,14,16,-16,24,17,2,1
16:24:15.466558,5,-11,-12,-70,-128,-15,-1,3
16:24:15.482550,7,21,-27,-108,-13,-11,3,2
16:24:15.489546,-31,-52,-43,-64,-22,-6,-7,-19
16:24:15.504537,15,27,38,103,60,10,2,4
16:24:15.504537,14,22,8,0,-38,-12,1,3
16:24:15.519528,0,-14,3,127,127,7,2,-1
16:24:15.526521,2,20,26,14,-50,-12,-5,-2
16:24:15.542514,1,-3,-6,-99,7,2,5,1
16:24:15.549506,4,9,7,33,-23,-5,-4,-4
16:24:15.564499,7,9,57,127,3,-11,7,9
16:24:15.565497,-36,-40,-23,-42,-128,-22,-20,-24
16:24:15.579488,-5,13,9,-12,-3,7,-8,-8
16:24:15.587483,14,22,12,-128,-128,-21,-1,4
16:24:15.602474,2,13,16,-52,-116,-40,-4,-2
16:24:15.609473,1,0,3,-7,-50,5,1,0
16:24:15.631457,4,19,3,-2,127,9,-1,-3
16:24:15.632456,0,-1,-3,-57,-128,-17,-5,-1
16:24:15.639454,12,34,42,72,-63,-15,3,4
16:24:15.646450,11,35,21,-25,44,25,-1,-2
16:24:15.662440,15,43,44,68,47,16,6,5
16:24:15.669435,-12,1,-17,-46,5,0,-9,-8
16:24:15.691420,17,14,26,106,94,19,10,14
16:24:15.692421,17,42,36,-28,-80,4,4,4
16:24:15.699417,-1,18,24,36,0,-6,-6,-6
16:24:15.706413,-16,-38,-15,67,121,49,-5,-10
16:24:15.729399,-3,-12,-5,12,-56,-19,1,-1
16:24:15.730398,8,19,17,-4,-49,0,6,5
16:24:15.744390,-5,6,15,-15,12,-14,-3,-3
16:24:15.745389,-17,-38,-32,-37,-128,-19,-4,-7
16:24:15.759380,7,10,24,49,116,19,5,2
16:24:15.767374,25,44,41,35,127,19,9,15
16:24:15.782363,-5,-5,-7,3,-43,-6,-3,-4
16:24:15.789362,1,-2,1,12,-128,-7,2,3
16:24:15.812347,0,10,29,69,11,9,-3,-4
16:24:15.812347,-3,-4,-1,50,-53,-18,-5,-3
16:24:15.819343,-16,-35,-37,8,-41,-18,-5,-5
16:24:15.827336,7,8,13,108,50,9,5,5
16:24:15.842326,16,33,13,-108,28,-27,5,5
16:24:15.849324,-11,-26,-10,53,69,22,5,1
16:24:15.864316,8,11,-1,7,79,-12,0,1
16:24:15.872309,12,21,26,-20,-104,1,0,7
16:24:15.879306,-9,-32,-37,20,-56,-21,-2,-5
16:24:15.887299,23,39,26,-43,-53,-13,6,14
16:24:15.902292,-18,-30,-45,-37,1,9,-9,-12
16:24:15.909288,6,9,-4,-70,-11,12,3,-2
16:24:15.924279,-14,-28,-36,-32,-27,-20,-4,-6
16:24:15.939269,-1,-1,-13,-27,-20,-8,0,0
16:24:15.947264,-12,-25,-33,-9,-5,-19,-9,-9
16:24:15.947264,2,4,22,96,-97,9,1,0
16:24:15.962256,-1,2,-15,-67,-27,-10,-5,-2
16:24:15.969251,-6,-9,-15,-20,-20,-4,-6,-3
16:24:15.984242,-2,-2,-3,-26,-5,1,0,2
16:24:15.992237,-5,-12,-7,6,42,11,-2,-6
16:24:16.007228,2,-1,-4,15,11,-10,-2,-1
16:24:16.008224,-2,-1,-3,-29,-55,4,-5,-3
16:24:16.022221,1,-1,4,1,16,10,3,-1
16:24:16.029212,-1,11,14,-10,-18,15,5,2
16:24:16.044202,-10,-21,-23,-28,-23,-7,-7,-5
16:24:16.051200,2,7,12,2,5,4,2,-2
16:24:16.066191,-1,0,2,3,-2,-1,0,0
16:24:16.067187,-3,-3,-1,3,29,-4,-1,-1
16:24:16.081179,3,4,1,4,6,3,2,-3
16:24:16.096169,-3,-2,-1,-2,-5,-1,-5,-1
16:24:16.104164,6,7,8,11,15,10,13,5
16:24:16.126151,-1,-1,1,1,4,4,-15,11
16:24:16.127150,15,7,4,6,4,3,-15,18
16:24:16.128149,-7,1,4,3,5,11,28,23
16:24:16.149137,11,11,4,4,6,2,6,10
16:24:16.149137,30,5,-4,-8,-3,-9,-15,-38
16:24:16.164128,-22,-14,-17,-21,-21,-38,-1,1
16:24:16.172125,52,17,10,11,7,0,73,20
16:24:16.187114,-87,-19,-6,-4,0,13,36,-52
16:24:16.188124,52,16,4,7,4,-7,-22,-37
16:24:16.209099,-16,-16,-8,-8,-14,-28,-63,60
16:24:16.209099,14,-25,-7,-6,-2,48,63,38
16:24:16.224090,35,6,12,7,7,4,-111,55
16:24:16.247076,-59,-11,-8,-9,-1,33,107,-128
16:24:16.247076,41,22,3,-1,-24,-49,-125,-128
16:24:16.248076,-32,-27,-11,4,-2,33,-9,115
16:24:16.261068,7,2,12,15,17,20,127,-75
16:24:16.269063,-16,-6,-12,-20,-17,-27,-24,-52
16:24:16.284053,12,15,11,7,23,5,-19,8
16:24:16.292049,4,4,-10,-90,-51,-1,-17,11
16:24:16.307041,-8,1,15,88,96,16,-12,-4
16:24:16.307041,-1,-4,-12,-6,-3,-1,-9,-3
16:24:16.322031,23,18,14,63,-128,-13,4,26
16:24:16.329026,-32,-20,37,-40,8,-31,-9,-8
16:24:16.344017,-128,11,-24,38,-128,-15,39,14
16:24:16.352013,-77,57,-35,-128,113,-28,-38,-48
16:24:16.367003,-17,29,94,127,6,12,8,8
16:24:16.367003,-38,-65,-45,52,47,-10,-16,7
16:24:16.382003,83,13,27,55,-128,41,27,3
16:24:16.388989,3,17,11,47,54,5,36,22
16:24:16.403998,27,18,-25,-128,105,76,62,28
16:24:16.411975,-21,-20,7,61,127,-23,17,-13
16:24:16.433961,-21,8,2,-3,54,-14,21,-33
16:24:16.434962,45,-10,2,-4,9,17,16,11
16:24:16.441958,3,10,5,49,86,31,10,-7
16:24:16.448952,13,6,0,25,127,27,16,28
16:24:16.463997,-10,-6,0,-47,-22,-26,-6,-14
16:24:16.471939,8,0,15,104,127,23,24,48
16:24:16.486929,1,7,-17,-28,-14,-10,-3,34
16:24:16.486929,23,16,2,-33,10,-16,-15,-6
16:24:16.501921,-3,26,15,13,-19,1,-16,-9
16:24:16.508996,3,-11,-12,1,31,16,5,12
16:24:16.523910,14,3,-5,76,24,-4,1,6
16:24:16.531902,-5,-4,19,2,-40,-5,-4,-4
16:24:16.546893,-4,-5,7,17,35,0,-2,-1
16:24:16.546893,-9,-14,-9,-61,4,-8,-7,-8
16:24:16.561884,-14,10,-9,-57,-128,-16,-3,-8
16:24:16.568881,-5,0,7,30,87,-12,-5,-15
16:24:16.583869,33,16,19,55,51,38,31,37
16:24:16.591865,4,8,-26,-27,-35,-6,-1,-1
16:24:16.606855,-17,-11,8,37,1,0,-2,-9
16:24:16.606855,2,4,22,15,11,4,5,4
16:24:16.621847,3,-6,-2,-59,-1,17,3,-5
16:24:16.628844,-18,0,4,26,4,-23,-7,-9
16:24:16.643835,1,5,-1,83,53,6,0,2
16:24:16.651829,-1,0,-8,0,-3,5,9,38
16:24:16.666819,4,5,6,-14,-10,-2,-1,-9
16:24:16.666819,-2,1,2,-2,-24,-6,-1,-1
16:24:16.688875,-10,-1,-5,15,15,0,-3,0
16:24:16.689803,2,1,1,-87,-128,-7,11,11
16:24:16.704795,4,-2,-4,17,-37,15,22,23
16:24:16.711794,-1,2,-2,-51,-14,-1,-1,-7
16:24:16.726782,2,0,2,20,6,13,-3,4
16:24:16.727784,5,0,1,-1,-2,0,3,1
16:24:16.741773,-3,-1,3,-1,-8,-6,-2,2
16:24:16.749768,-4,0,1,-1,-2,2,7,0
16:24:16.764759,-2,0,-2,3,-36,-8,-6,-4
16:24:16.771755,-5,-4,-5,-47,-32,-1,-4,-5
16:24:16.786745,4,2,6,127,-2,10,7,6
16:24:16.787744,-7,-4,-1,64,-116,-14,-16,-12
16:24:16.801737,-4,0,5,3,50,19,-9,-2
16:24:16.809731,-4,0,-3,-13,24,0,-2,-4
16:24:16.824724,3,-5,-2,-8,17,7,-5,-6
16:24:16.832720,2,1,1,-18,29,5,-6,0
16:24:16.846710,0,2,-8,-122,-74,-12,0,2
16:24:16.854706,-7,-2,-1,26,-23,-4,6,0
16:24:16.869693,2,0,3,3,19,6,-2,-3
16:24:16.870697,-1,0,-1,-14,-8,-1,0,1
16:24:16.884686,1,0,0,-20,-21,1,-5,-4
16:24:16.891682,-5,-1,-2,29,9,-6,-3,0
16:24:16.906671,-3,-2,0,3,1,3,10,-6
16:24:16.914670,-7,-4,-4,-21,-37,-2,-1,-2
16:24:16.929660,2,0,-2,4,54,12,0,4
16:24:16.929660,-3,-1,3,13,51,-2,-13,0
16:24:16.944651,6,-3,0,-5,8,2,3,2
16:24:16.959641,3,5,5,34,12,4,6,6
16:24:16.967633,-4,-5,-5,23,-7,-6,-6,-2
16:24:16.974632,2,-1,-3,-4,4,2,-1,1
16:24:16.989620,-5,-3,2,28,9,-13,-6,-4
16:24:16.989620,-2,-1,-6,-17,-1,-5,1,2
16:24:17.004614,0,-1,1,1,-30,-1,0,-2
16:24:17.011606,1,2,0,3,-8,-4,0,1
16:24:17.026598,-4,-8,-4,-3,-19,-3,9,11
16:24:17.034592,-2,0,-2,-1,0,1,-2,-1
16:24:17.049583,-2,1,0,3,-9,3,2,-1
16:24:17.050588,-1,2,6,3,7,4,1,-2
16:24:17.064576,-2,0,-3,-6,-11,-6,-2,-3
16:24:17.071570,-2,-2,1,6,-8,2,0,1
16:24:17.086561,1,-3,-3,-14,10,-1,-2,-2
16:24:17.094558,0,-2,5,16,51,6,3,6
16:24:17.109549,-1,1,0,14,-28,-6,-3,-2
16:24:17.110546,0,0,-2,9,18,-3,1,1
16:24:17.124540,-4,-1,-3,7,58,0,-7,-4
16:24:17.131533,-3,-2,-2,-3,2,-2,2,-2
16:24:17.147525,-1,-1,-2,-2,-5,-3,-6,-1
16:24:17.154521,1,-2,1,-1,-3,8,8,21
16:24:17.169512,0,-1,-1,-3,-11,0,-2,-7
16:24:17.170508,-6,-4,-7,-2,3,2,2,-1
16:24:17.184503,-2,0,-6,-32,22,-2,0,-3
16:24:17.191496,-6,-1,-3,-20,-11,-9,-4,-3
16:24:17.207486,-3,-3,2,9,16,3,1,-1
16:24:17.214481,-4,-2,1,-1,-2,3,1,1
16:24:17.229475,-3,-4,-2,-2,-2,0,-3,-2
16:24:17.229475,-5,-5,-4,-3,-4,1,-4,-4
16:24:17.244464,-1,-1,-3,-1,-1,1,3,-2
16:24:17.251463,0,0,-1,-4,-4,-5,-3,15
16:24:17.266469,-1,-3,-1,-6,4,-1,-1,-6
16:24:17.274445,-4,-5,-2,26,27,3,1,-4
16:24:17.296430,-4,-6,-6,-7,-14,-4,-1,-5
16:24:17.297429,-3,-1,-3,-2,-5,-1,2,0
16:24:17.304427,-3,-1,-1,0,2,-2,-2,-3
16:24:17.311474,2,0,-5,-1,-5,-1,2,0
16:24:17.326467,-2,0,-1,-1,-5,-3,-2,-4
16:24:17.334408,-2,1,-1,1,2,2,-2,-4
16:24:17.356393,-3,-1,-1,-1,1,-2,-1,-3
16:24:17.357393,-3,-1,2,-2,6,9,16,4
16:24:17.364388,3,-4,-4,-4,-6,-2,4,3
16:24:17.371384,-1,0,-3,-41,-6,5,0,-1
16:24:17.388374,0,0,1,12,-18,1,1,-3
16:24:17.395370,-5,-3,-2,-23,13,0,1,-1
16:24:17.409361,-4,-5,-3,11,9,2,1,-2
16:24:17.409361,0,0,-1,1,-1,3,5,5
16:24:17.424351,-3,-1,-1,-4,-4,-3,-2,0
16:24:17.432348,-4,-1,1,1,0,1,-4,2
16:24:17.446338,0,-2,-1,-2,-2,-1,-1,-4
16:24:17.454334,0,0,0,0,-4,-6,-5,2
16:24:17.469324,4,0,3,6,-2,5,-6,2
16:24:17.476320,-3,-4,-1,0,10,-1,7,-4
16:24:17.484315,-5,-2,0,0,-4,-6,-4,-7
16:24:17.491311,1,0,-3,-33,-5,2,1,-1
16:24:17.506304,-4,-1,-1,6,0,0,1,-3
16:24:17.514297,0,1,1,-1,1,-2,-1,1
16:24:17.529288,-3,1,-4,-2,-2,0,-2,-2
16:24:17.529288,-2,0,1,-3,-3,-6,4,4
16:24:17.544279,1,3,-1,-8,-3,1,-2,1
16:24:17.551276,1,2,0,10,2,-4,1,3
16:24:17.574263,0,-1,-2,-1,2,-9,-13,-3
16:24:17.575263,-3,-4,-2,-2,-1,-1,11,-1
16:24:17.589254,-1,-2,-1,-1,3,4,-5,-3
16:24:17.590250,0,-1,-2,-5,-1,-1,3,-1
16:24:17.604245,2,-3,-4,-1,1,-1,1,0
16:24:17.612239,-1,-2,0,-2,-3,-2,9,12
16:24:17.627231,-2,-3,-3,-3,1,5,0,0
16:24:17.635226,-8,-6,-3,-4,1,-5,-3,-4
16:24:17.649214,0,-7,-1,0,0,6,15,4
16:24:17.650216,5,4,3,7,14,12,11,10
16:24:17.664206,-3,-1,-3,-2,0,2,-2,-2
16:24:17.671201,-4,0,0,0,-14,-9,4,5
16:24:17.687191,2,-1,-1,0,2,5,6,5
16:24:17.694186,-2,-1,0,0,-2,-5,-10,-2
16:24:17.709178,-4,-2,0,-3,-3,-2,3,3
16:24:17.709178,-6,-2,0,0,-5,-7,-1,-1
16:24:17.724169,-1,-3,0,-3,-1,0,-3,-1
16:24:17.731164,-4,-6,-2,-1,-6,-6,-6,-1
16:24:17.747153,1,3,2,1,-3,-5,0,7
16:24:17.754149,-3,-5,-5,-4,-2,-1,-6,-6
16:24:17.769141,-3,-1,1,-3,-2,-5,-3,-1
16:24:17.776138,0,-2,-3,-5,-7,-5,-3,0
16:24:17.785134,0,-5,-3,2,0,-7,-2,0
16:24:17.800125,-2,-2,-3,-1,1,1,4,4
16:24:17.807120,-1,-1,-3,-4,-3,-1,1,-5
16:24:17.814112,-1,-1,-3,-3,-4,-2,1,-1
16:24:17.829104,2,3,2,5,5,-5,-8,2
16:24:17.837102,-4,1,-2,-1,-3,-3,6,-2
16:24:17.852092,-4,0,1,-1,-7,-7,-2,-7
16:24:17.853090,-2,-1,-3,-1,-1,-2,1,0
16:24:17.867082,-3,-1,-2,-1,2,0,1,-2
16:24:17.889068,-1,-3,1,-1,0,-1,1,0
16:24:17.890069,-3,0,-1,-1,-2,-1,0,1
16:24:17.897065,-3,-3,-3,-3,-6,-4,-1,-3
16:24:17.912055,1,0,1,2,7,2,1,18
16:24:17.912055,2,0,4,2,5,4,2,2
16:24:17.927046,-3,-3,0,-4,-4,0,5,-4
16:24:17.935039,-2,1,-3,-2,1,0,-8,2
16:24:17.950029,-2,-2,-1,-1,-1,2,6,-1
16:24:17.957028,-2,-1,-4,0,0,-2,-1,0
16:24:17.972018,0,-1,2,1,-1,7,4,0
16:24:17.972018,-3,0,-2,-1,0,3,2,0
16:24:17.987009,1,0,2,5,2,1,-1,1
16:24:17.995001,0,-1,-1,-3,-3,-1,6,5
16:24:18.009994,-7,-5,-1,-4,0,0,-4,0
16:24:18.016991,-1,1,1,-2,-3,1,-3,0
16:24:18.031981,0,-4,1,-1,-3,-2,-3,0
16:24:18.039975,-3,-5,-3,1,3,8,10,2
16:24:18.046972,-4,-4,-1,-2,-2,-1,-2,-1
16:24:18.054965,1,3,0,-4,2,-1,-3,2
16:24:18.069956,-4,-5,-7,-1,-1,0,-3,-4
16:24:18.076954,-1,2,-1,-1,0,5,4,3
16:24:18.091945,-3,-2,-1,1,-3,-3,-4,-3
16:24:18.092944,-2,0,1,-3,-3,-1,0,-1
16:24:18.106935,-1,-1,2,1,1,0,-1,-2
16:24:18.114928,-4,-4,-3,-4,-5,-8,-4,-2
16:24:18.129920,-2,1,2,2,-5,-2,-2,-4
16:24:18.136917,-1,-5,-1,-3,-2,-1,3,1
16:24:18.151908,-3,-4,-2,2,-1,0,10,0
16:24:18.152907,-2,-2,0,-3,-1,2,-2,0
16:24:18.166895,-3,0,0,0,-4,-3,-6,3
16:24:18.174894,-4,-2,1,-3,-4,-4,-6,-6
16:24:18.189881,-1,-2,-2,-3,-3,1,-1,0
16:24:18.196880,1,0,1,1,4,1,3,2
16:24:18.211871,0,-2,-1,-2,-4,-4,-4,-1
16:24:18.212869,0,-2,1,-1,-1,1,2,2
16:24:18.226861,0,-2,1,-5,2,-1,-1,-2
16:24:18.234857,-1,-1,-1,1,-3,-1,-2,-3
16:24:18.249845,0,1,-2,0,0,2,1,-4
16:24:18.256843,1,-1,0,-1,1,4,2,2
16:24:18.271831,1,-1,-1,0,1,2,4,0
16:24:18.272833,2,0,-3,-2,-3,1,0,3
16:24:18.286825,-6,-1,-3,-5,-5,-5,-4,-6
16:24:18.294817,-4,1,0,-2,-1,-3,-12,2
16:24:18.309808,0,1,-1,-2,1,3,-2,-3
16:24:18.324801,2,-2,1,0,0,0,4,5
16:24:18.331794,1,0,-2,-1,0,0,-3,-3
16:24:18.332796,0,4,1,-1,0,-1,1,0
16:24:18.346785,-4,-4,-3,-3,-5,-8,-16,-2
16:24:18.354783,-2,1,0,0,2,2,0,-1
16:24:18.376767,0,-1,0,4,-1,-6,-1,2
16:24:18.376767,-2,-1,0,-2,1,0,-3,-2
16:24:18.391757,1,-1,0,0,-1,-5,-3,3
16:24:18.392756,-2,-3,0,0,-1,0,-2,1
16:24:18.406748,1,-4,0,-4,-2,-1,0,-1
16:24:18.413746,-4,-2,-1,0,-2,0,0,-1
16:24:18.429733,-3,-1,1,-1,-2,-1,0,-3
16:24:18.436729,1,0,0,0,2,-3,3,4
16:24:18.451721,-4,-3,-3,-2,0,1,-9,-5
16:24:18.452720,-3,-1,-1,-3,1,2,1,0
16:24:18.466711,0,1,-1,0,-3,-1,0,2
16:24:18.473706,1,-1,-3,-2,0,-1,2,1
16:24:18.489696,0,1,-2,1,-2,-1,-1,1
16:24:18.496692,2,2,-1,3,-1,-1,-5,-1
16:24:18.511683,-1,-1,-1,-3,0,1,2,-1
16:24:18.511683,-2,-1,0,1,0,2,1,1
16:24:18.526673,-1,-1,-2,-1,0,0,-2,-2
16:24:18.534668,20,2,3,1,2,6,8,11
16:24:18.549660,-1,-1,-2,-3,-9,0,-6,-1
16:24:18.556655,2,-1,0,0,-1,0,-1,-4
16:24:18.571646,0,0,1,0,2,2,-3,-1
16:24:18.571646,3,0,-4,-4,-5,1,1,2
16:24:18.586636,1,-1,2,3,3,-2,-1,-2
16:24:18.594632,-1,2,1,-1,-3,-1,1,1
16:24:18.609623,-1,0,0,0,0,-1,-3,-4
16:24:18.616619,2,-2,1,-4,-4,3,-1,0
16:24:18.631608,1,-1,-1,-1,2,-3,-2,4
16:24:18.632608,-4,1,0,-1,-1,0,1,-1
16:24:18.646599,0,-2,2,-2,2,6,4,8
16:24:18.654595,-2,-1,-6,-4,-5,1,2,-3
16:24:18.669587,-1,0,0,-1,2,3,-1,-2
16:24:18.684577,-2,-2,-1,-1,0,-3,-2,3
16:24:18.691571,-3,-3,-1,-3,-6,-4,-4,-1
16:24:18.691571,1,-1,-2,0,1,2,2,2
16:24:18.706562,1,-2,-1,0,-3,-3,4,-3
16:24:18.714557,-1,1,-1,0,0,2,0,-3
16:24:18.729548,1,0,0,0,-2,0,-2,-2
16:24:18.738543,-3,0,-1,1,-1,-1,1,-1
16:24:18.751535,-3,-2,-1,-1,-1,4,-2,-2
16:24:18.759530,-3,-7,-1,-2,1,2,1,1
16:24:18.774521,-1,-2,-2,-3,-3,1,0,0
16:24:18.774521,-3,0,0,-1,1,-1,0,-2
16:24:18.796507,-3,-3,2,-1,-4,-6,-11,-3
16:24:18.797507,-4,-1,0,-1,-2,-1,-1,0
16:24:18.811498,-6,-5,-1,-1,-2,-1,2,2
16:24:18.819493,-1,0,-1,-1,0,-1,2,3
16:24:18.834484,-1,2,-1,-3,-1,0,-3,-1
16:24:18.834484,1,-1,-3,0,-1,-4,-3,4
16:24:18.849475,-1,-1,-1,-3,-3,-2,-3,-5
16:24:18.857470,-3,-3,-4,-5,-3,-3,2,1
16:24:18.872460,0,0,-5,-4,-1,-3,0,-3
16:24:18.880455,-4,-1,-4,-2,-1,-2,-3,-2
16:24:18.901443,4,-1,2,0,-1,3,5,3
16:24:18.902444,-1,0,-1,0,2,-1,0,1
16:24:18.916433,-1,-3,1,0,0,1,-2,-3
16:24:18.917433,0,-1,1,-4,-3,-2,-2,-2
16:24:18.931424,0,-2,0,-1,2,1,-5,2
16:24:18.939420,1,1,-1,-2,-3,-4,-2,2
16:24:18.954410,-4,-3,1,-1,-2,0,-7,-3
16:24:18.954410,6,4,3,6,0,5,6,6
16:24:18.969400,-3,-2,0,-1,-1,-3,-10,-1
16:24:18.976396,-1,-1,-3,0,2,3,4,2
16:24:18.991387,0,0,-3,0,-1,-3,-3,-1
16:24:18.999383,1,-3,0,1,1,1,5,2
16:24:19.014373,-2,0,1,-2,-2,1,-2,-3
16:24:19.021377,3,-2,1,1,1,1,-2,2
16:24:19.029363,2,-3,0,-1,-2,-3,0,2
16:24:19.036359,-1,-1,-1,-5,-4,7,1,-2
16:24:19.051352,-2,-3,1,-1,-1,-1,2,-4
16:24:19.059345,-1,-3,-3,-4,0,0,1,2
16:24:19.074337,-2,1,-1,0,-1,0,1,-2
16:24:19.074337,0,0,0,-1,1,0,1,1
16:24:19.089326,-1,1,-2,1,-1,0,1,-4
16:24:19.096323,1,-5,2,-2,1,-3,1,0
16:24:19.111314,2,0,1,3,3,3,1,1
16:24:19.126304,-1,1,-1,-2,0,-5,-1,1
16:24:19.134299,0,-1,-3,-1,-1,3,0,-2
16:24:19.134299,-2,0,-2,0,2,-4,-1,1
16:24:19.149290,1,-4,0,1,-1,1,-6,1
16:24:19.156286,-2,-1,0,-1,5,5,2,-1
16:24:19.171278,-1,1,-2,-3,-1,-4,-1,0
16:24:19.179271,6,0,-1,1,0,-1,0,2
16:24:19.194262,2,1,-1,2,0,-1,-1,-2
16:24:19.194262,0,-4,-1,1,-4,4,7,2
16:24:19.209253,-3,-1,0,0,-3,-2,-5,1
16:24:19.216250,-1,-2,1,-1,-1,-2,2,-3
16:24:19.231240,0,0,-5,0,-2,2,-1,-2
16:24:19.239234,0,0,0,-2,-4,-3,3,0
16:24:19.254225,-1,2,1,0,3,-1,-4,-1
16:24:19.254225,-1,-2,-2,-2,-1,-1,0,-3
16:24:19.269223,-1,1,1,1,-1,-5,-1,-1
16:24:19.276212,-5,-5,-2,-3,-2,-3,-13,2
16:24:19.299198,-2,-2,-2,-1,1,0,0,-2
16:24:19.299198,-1,1,-2,-1,-2,6,2,-2
16:24:19.314188,-2,-2,-1,-1,2,2,-2,-1
16:24:19.314188,-2,-4,1,0,2,0,8,-3
16:24:19.329180,2,-2,-1,1,-3,4,1,2
16:24:19.336175,-1,-1,-1,-1,5,3,3,-2
16:24:19.351171,0,-1,-1,-1,-7,-4,-3,-2
16:24:19.359161,-1,1,-2,-2,-1,1,3,2
16:24:19.374151,-5,1,1,-2,-2,-2,-1,3
16:24:19.374151,2,-1,0,0,-2,5,3,-3
16:24:19.389142,1,4,0,1,-1,1,1,-1
16:24:19.396137,3,-1,-3,-1,1,-4,-2,-3
16:24:19.411129,2,-3,-2,0,-1,1,0,-2
16:24:19.419125,-2,-4,0,-3,0,0,0,-1
16:24:19.434117,-1,-3,-2,0,-1,0,-5,-6
16:24:19.435115,-1,0,-1,1,2,-2,3,2
16:24:19.449106,0,2,-2,0,0,5,-3,0
16:24:19.457100,-2,1,-1,1,0,1,1,1
16:24:19.472092,1,0,2,-1,-1,-3,0,2
16:24:19.479087,-3,-2,-3,-4,-2,3,0,-2
16:24:19.494078,-1,3,3,0,0,4,2,-1
16:24:19.495077,0,-2,-1,-1,-2,-3,-3,-3
16:24:19.517063,-2,-1,0,-2,-2,-3,0,0
16:24:19.518064,-1,-2,-3,-2,2,-1,2,-2
16:24:19.532056,-4,-2,-4,-1,-1,0,2,-2
16:24:19.539066,0,0,-4,1,-5,1,-1,0
16:24:19.554041,0,-3,-3,0,2,4,-4,2
16:24:19.555040,4,-1,1,2,2,3,7,0
16:24:19.571030,1,-2,1,-1,-5,0,0,0
16:24:19.578026,1,-2,0,-2,-1,-1,-1,2
16:24:19.592017,0,-2,-2,-4,0,-2,1,-1
16:24:19.600013,-2,0,-1,1,0,1,-2,2
16:24:19.614003,0,0,-2,-2,0,-1,-3,-1
16:24:19.615003,-1,-2,2,-2,2,2,0,-2
16:24:19.629033,-2,-1,-2,-1,-1,0,-3,-2
16:24:19.636990,-3,-2,-2,-3,-2,1,-1,-1
16:24:19.651982,-3,0,0,0,1,-1,-2,2
16:24:19.658976,0,3,2,1,0,2,0,2
16:24:19.674967,-3,0,1,-4,-2,-6,-4,-2
16:24:19.681962,1,0,0,-1,2,8,5,0
16:24:19.695953,1,-3,1,0,-2,-1,0,1
16:24:19.696953,-2,-1,-2,-3,0,-2,0,-2
16:24:19.716941,-1,-1,-1,-3,-1,-5,0,-1
16:24:19.723937,-2,-1,-3,0,-4,1,-3,-1
16:24:19.741926,0,0,-1,-3,0,0,-1,-1
16:24:19.741926,0,-2,2,3,2,2,1,3
16:24:19.767910,-4,-2,-4,-3,-3,0,-2,-1
16:24:19.767910,1,0,-3,-2,-2,-2,-1,-2
16:24:19.771907,0,-3,0,-2,-3,0,-5,1
16:24:19.785899,-3,-1,-1,0,-2,0,-2,-1
16:24:19.794894,0,2,-5,-3,-4,0,1,-1
16:24:19.804891,0,-3,-2,-1,0,-2,-2,0
16:24:19.841864,0,-1,-2,-2,-4,1,1,2
16:24:19.841864,0,-1,0,-2,0,1,1,-2
16:24:19.842863,1,1,-1,-1,0,0,1,-1
16:24:19.845861,-1,-1,-4,-2,-3,4,1,-1
16:24:19.861851,-1,0,-3,0,-2,1,-3,1
16:24:19.861851,0,-1,2,0,0,-2,-1,2
16:24:19.877842,0,-1,-2,-2,-1,5,-1,-2
16:24:19.878841,-1,0,-2,-3,0,0,0,-2
16:24:19.899829,-1,0,0,0,-1,-2,-2,1
16:24:19.899829,-3,-2,0,-2,-2,0,-2,-1
16:24:19.913819,-3,-1,-1,-2,0,-1,0,-1
16:24:19.921814,-2,1,-2,-1,0,-3,0,-1
16:24:19.936806,0,-3,0,-2,2,-1,-8,-1
16:24:19.936806,-3,-1,-2,-3,-2,6,6,-2
16:24:19.951797,-2,-3,-3,-2,0,-2,-1,-1
16:24:19.958795,0,1,0,-1,-3,0,0,0
16:24:19.973784,-1,2,-2,-1,-2,-4,-2,0
16:24:19.981778,0,3,0,0,2,-1,1,4
16:24:19.996769,2,0,0,3,2,1,-1,2
16:24:19.996769,0,-3,-1,1,-3,-1,-2,-1
16:24:20.011760,0,1,1,1,2,-5,-1,-1
16:24:20.019757,-4,-1,-2,-3,-5,-2,-8,-2
16:24:20.034746,2,2,4,2,3,2,5,1
16:24:20.041740,-1,-2,-1,-3,-3,-1,-3,-4
16:24:20.056733,-1,-1,-2,1,2,2,-7,-1
16:24:20.056733,-4,-1,-1,-1,-4,1,2,2
16:24:20.071725,0,0,1,1,-2,-2,0,0
16:24:20.079717,3,0,-1,-2,2,5,5,6
16:24:20.094712,-1,2,-1,-2,-3,-3,-1,-1
16:24:20.101705,-5,-1,-3,-3,-4,-2,-3,-5
16:24:20.116698,1,-1,-3,-4,-3,-2,-2,-3
16:24:20.117697,-3,3,0,1,0,1,10,2
16:24:20.131687,-3,-2,-1,1,-3,1,-8,-5
16:24:20.139684,-3,-5,-4,-3,-6,-5,-11,-3
16:24:20.154675,-1,-2,-2,-3,1,-4,-2,1
16:24:20.169666,-1,-2,-4,-2,-2,5,2,3
16:24:20.176661,-1,0,1,1,-6,-2,0,0
16:24:20.177657,0,2,2,0,-4,0,-1,-4
16:24:20.192651,1,-1,0,0,0,-3,-4,-2
16:24:20.199647,0,1,-2,-1,0,3,0,2
16:24:20.214635,-2,-1,2,0,-1,-1,-1,-1
16:24:20.222631,-3,0,-1,-1,1,1,3,2
16:24:20.236624,0,1,-3,-5,-4,4,3,-5
16:24:20.237621,-2,-2,0,-1,-1,-1,1,-1
16:24:20.251612,-1,-2,-1,1,1,-5,-1,-2
16:24:20.266604,-1,0,-1,1,0,3,5,-13
16:24:20.274601,1,0,0,-3,0,2,-3,-2
16:24:20.289592,-2,0,0,0,-1,-1,-4,-4
16:24:20.296587,0,-1,-3,-3,-3,-1,2,0
16:24:20.297584,0,-3,-1,-3,-3,-1,-3,0
16:24:20.319573,1,4,1,0,-3,5,1,-1
16:24:20.320572,-4,0,-1,-1,0,0,0,-2
16:24:20.334564,0,-1,0,1,2,1,-8,-2
16:24:20.342558,-1,1,-3,-2,0,-3,-2,-3
16:24:20.356549,1,-2,-1,1,-1,5,2,2
16:24:20.357546,0,-1,2,2,2,-6,-12,2
16:24:20.379536,0,-4,-3,-1,-1,6,-2,-3
16:24:20.379536,1,4,2,4,5,4,3,4
16:24:20.394527,-2,-2,-1,0,-1,-2,-5,-6
16:24:20.402520,0,-3,-2,1,-4,1,0,1
16:24:20.416515,-3,-2,0,-3,-3,-3,-3,-3
16:24:20.417512,1,-1,-4,-2,2,1,4,5
16:24:20.432501,0,-2,-3,-3,-1,0,-1,-4
16:24:20.439496,0,-1,-1,-2,0,0,-1,2
16:24:20.455487,1,1,2,0,1,-4,-11,-2
16:24:20.470477,1,0,2,2,2,-2,3,2
16:24:20.484468,-2,-3,-5,1,-3,3,0,-2
16:24:20.484468,0,0,-1,-4,0,5,8,1
16:24:20.491477,-2,-1,-1,-3,-1,1,-2,-1
16:24:20.499460,0,1,0,1,2,5,-5,-5
16:24:20.514451,1,-1,2,2,-1,1,0,0
16:24:20.521444,2,-3,1,2,0,-1,-2,-2
16:24:20.536435,-1,-4,-2,-1,-3,-1,7,2
16:24:20.537435,2,2,2,0,2,0,1,-1
16:24:20.551426,0,-1,-1,0,0,5,1,2
16:24:20.559423,2,2,1,1,5,2,2,2
16:24:20.574414,0,-1,-2,-2,2,0,3,0
16:24:20.581408,0,-2,2,-1,-2,-5,-7,0
16:24:20.596401,1,0,-3,0,-1,-1,-7,0
16:24:20.597398,-3,-2,-3,-2,-2,0,14,-1
16:24:20.611392,-3,-1,0,1,-5,-3,3,2
16:24:20.619386,2,-1,1,-3,0,6,10,16
16:24:20.634377,0,-1,-3,2,0,2,-3,-2
16:24:20.641374,-2,-1,0,-2,-4,-3,-5,-5
16:24:20.656365,1,-1,-1,2,-3,-2,1,1
16:24:20.664357,-1,0,4,0,-1,-3,3,2
16:24:20.679351,-3,-2,-1,-1,-5,1,-2,-2
16:24:20.679351,-3,-1,0,0,-1,2,0,-6
16:24:20.701334,2,2,0,0,2,8,3,7
16:24:20.702340,-1,-1,1,0,-1,-3,-4,-2
16:24:20.716328,-4,-1,-3,2,0,-1,0,-5
16:24:20.724321,0,-2,0,-3,0,1,-3,-7
16:24:20.739312,-2,-4,-2,0,0,-1,-2,-4
16:24:20.739312,2,1,1,1,0,2,2,-2
16:24:20.754303,-1,0,-3,-1,0,4,1,-1
16:24:20.761302,0,0,0,-5,-6,-3,-2,-6
16:24:20.776302,2,0,-2,-1,-4,0,-6,-3
16:24:20.791295,2,-1,0,-1,0,0,3,-3
16:24:20.799274,-1,1,1,-1,0,0,-5,-5
16:24:20.799274,-1,3,1,0,-2,-1,3,-5
16:24:20.814266,-1,1,0,4,5,7,12,0
16:24:20.821261,-2,0,1,-1,-2,-2,-2,-6
16:24:20.837250,-1,-4,0,-2,-3,-3,-1,-3
16:24:20.844246,0,3,-2,2,1,2,6,0
16:24:20.859237,1,-2,-3,1,3,1,-1,-1
16:24:20.859237,3,-1,-1,-1,2,2,0,1
16:24:20.881226,-1,-2,-1,0,1,0,1,-3
16:24:20.882223,2,4,-1,0,1,2,3,3
16:24:20.897214,-1,1,-2,-2,0,-3,-2,-5
16:24:20.904211,-2,2,-1,-1,1,-1,8,0
16:24:20.919200,-1,-2,0,-3,1,0,-2,-1
16:24:20.920201,-1,-1,0,-1,1,1,3,2
16:24:20.934190,-2,-1,-3,0,-1,-8,-16,0
16:24:20.941187,2,-1,0,0,-4,0,3,1
16:24:20.957177,1,-1,-2,1,-4,-2,7,7
16:24:20.964172,1,1,1,-1,1,-3,-3,-6
16:24:20.979164,-2,-2,-3,-2,3,0,-1,3
16:24:20.979164,1,-2,1,0,-2,1,0,-1
16:24:21.002150,-3,-1,-6,0,-5,0,-2,-1
16:24:21.002150,-3,0,-4,0,-1,-3,-2,2
16:24:21.017140,1,-1,0,0,-2,1,1,2
16:24:21.031132,0,-1,-3,0,-1,1,-1,-4
16:24:21.039128,2,1,2,0,1,3,-7,1
16:24:21.039128,2,-1,1,1,-3,4,1,-3
16:24:21.055121,-3,-1,2,-1,1,-2,-10,3
16:24:21.062115,-2,-2,-1,-1,1,0,-1,-1
16:24:21.077104,-2,0,-1,-2,0,-1,-2,-1
16:24:21.084100,0,-1,-1,-2,-1,-1,1,0
16:24:21.099093,0,0,1,-3,-1,-1,1,-1
16:24:21.100090,-3,-1,2,-1,3,0,1,3
16:24:21.114080,1,-1,-1,1,-3,1,-2,-3
16:24:21.130077,2,0,1,-2,1,1,5,1
16:24:21.137070,-1,0,2,1,4,2,4,0
16:24:21.144065,-1,0,0,2,-1,3,-4,1
16:24:21.160053,1,0,0,0,0,-2,12,9
16:24:21.160053,2,-3,-1,0,1,-1,-2,-3
16:24:21.175045,-1,-1,-4,-2,-2,-1,5,-6
16:24:21.183039,3,0,0,1,1,3,1,1
16:24:21.198030,0,-2,0,1,4,-1,-4,-3
16:24:21.204053,0,-1,-2,0,1,1,-1,-1
16:24:21.219016,-2,-3,-4,-1,1,1,-7,-2
16:24:21.220017,0,4,2,0,0,-3,-2,0
16:24:21.242003,0,-3,-1,-2,-1,3,0,-2
16:24:21.242003,0,-2,0,0,-1,0,1,-1
16:24:21.256992,2,2,-1,-1,-3,-2,1,0
16:24:21.263989,1,2,2,-1,2,2,-2,0
16:24:21.278981,-2,1,-2,1,-3,-6,-4,2
16:24:21.279978,4,-2,-1,-3,-2,5,2,3
16:24:21.293970,0,-3,-4,-4,-5,-4,-3,2
16:24:21.301965,-1,2,1,1,2,-1,-2,-2
16:24:21.316956,-1,-3,-1,-2,-2,-3,-3,0
16:24:21.323951,0,1,1,1,-2,3,3,1
16:24:21.339943,-2,-1,0,1,0,1,-6,-3
16:24:21.339943,4,1,1,-1,0,8,13,14
16:24:21.353933,-1,-3,-4,-3,0,-1,8,-7
16:24:21.368924,-1,1,0,0,4,0,-3,-3
16:24:21.376920,-4,-7,-4,-2,-1,1,0,-1
16:24:21.383915,1,4,1,0,0,-4,0,2
16:24:21.406901,-1,-1,-1,0,0,-4,-4,-3
16:24:21.406901,2,0,1,-1,-1,4,2,0
16:24:21.413895,-3,0,-2,-1,-1,-3,0,0
16:24:21.421891,-1,-1,2,-1,-2,1,0,-3
16:24:21.436882,-4,0,-1,-3,1,1,3,0
16:24:21.443877,1,2,1,-1,1,2,3,-1
16:24:21.458868,-1,-1,1,-3,-1,-2,-5,-2
16:24:21.459868,-1,1,-1,-1,1,-2,-3,-1
16:24:21.473859,0,0,-1,0,1,-2,0,-2
16:24:21.481854,2,0,0,1,0,2,-4,-3
16:24:21.496845,0,2,0,0,-2,-4,-10,6
16:24:21.503842,-1,-4,-1,-3,-3,-4,0,-4
16:24:21.518831,-1,0,-3,-1,-2,1,5,1
16:24:21.519831,-1,-3,-2,-2,0,0,-2,-1
16:24:21.541818,0,-2,-1,0,0,-1,-3,-1
16:24:21.549813,-2,0,-1,-2,-3,-5,2,0
16:24:21.556818,-1,2,-3,0,1,1,0,0
16:24:21.565805,-4,-2,-2,-4,-1,0,0,0
16:24:21.578794,-4,-3,-3,-1,-3,-3,-1,0
16:24:21.586789,-2,-1,-1,-2,-1,-2,-3,-2
16:24:21.601781,0,2,2,0,-1,-1,0,3
16:24:21.602779,0,0,-1,1,-3,-2,0,1
16:24:21.616771,-4,-3,-3,-3,1,1,9,-6
16:24:21.623777,0,-1,-3,-2,-1,3,-8,1
16:24:21.639757,-4,0,-2,-2,-1,0,-1,-5
16:24:21.646753,0,-1,3,-1,-1,-1,-3,-1
16:24:21.661744,-1,1,-1,-2,-3,-5,-2,-2
16:24:21.661744,0,-3,-2,-1,2,3,-1,-2
16:24:21.683730,1,0,-1,-1,0,-1,0,1
16:24:21.684730,-1,-1,0,1,-2,-1,0,-3
16:24:21.699722,0,-1,1,2,2,2,-1,-3
16:24:21.714712,0,0,0,1,-1,-2,-3,0
16:24:21.721707,1,4,2,2,6,1,4,1
16:24:21.722706,-3,-3,-3,0,1,-2,-4,0
16:24:21.736697,-2,-3,1,2,2,-1,1,-4
16:24:21.744692,-1,0,-2,1,-2,0,-2,-4
16:24:21.766679,3,0,-1,2,2,7,15,6
16:24:21.766679,0,1,0,0,-4,-2,1,-2
16:24:21.782672,-1,1,-1,-3,-2,-4,-2,0
16:24:21.782672,1,2,0,2,1,1,-2,-4
16:24:21.796660,-1,0,1,2,3,4,3,0
16:24:21.803656,-4,-1,-2,-3,-3,-2,-2,-3
16:24:21.819646,-1,-2,-3,-4,-1,-3,-5,-5
16:24:21.826642,1,-2,-4,0,0,-3,0,-1
16:24:21.841632,-2,-1,-1,-1,1,0,-3,-3
16:24:21.842632,2,-2,1,-2,1,0,-1,-2
16:24:21.863622,2,1,-2,-1,1,-1,3,3
16:24:21.864618,-1,-2,-1,-2,-3,-1,6,-1
16:24:21.879609,-4,-2,-1,-1,-3,7,3,-1
16:24:21.886605,0,-2,-2,-3,-1,-2,1,-2
16:24:21.901596,-1,0,-1,-3,-1,-3,-3,-1
16:24:21.902596,1,-1,-5,-2,0,-1,0,-3
16:24:21.916586,-2,-2,0,0,-1,-1,-1,-2
16:24:21.924581,-2,0,-4,1,-1,-5,0,0
16:24:21.939573,0,1,-1,1,2,-4,-12,0
16:24:21.946568,0,-1,-1,-2,-3,-5,0,0
16:24:21.961567,1,-3,2,2,-1,-1,1,-2
16:24:21.969555,2,-1,2,0,1,-6,11,1
16:24:21.976567,1,-1,0,1,-1,1,0,3
16:24:21.991542,-1,-2,1,0,0,-1,-3,1
16:24:21.999535,0,0,-2,-2,1,1,-1,-1
16:24:22.006568,-3,-3,1,-1,0,1,0,-4
16:24:22.021522,0,-1,-2,0,0,2,4,0
16:24:22.022522,-3,-3,-1,-2,0,-1,1,0
16:24:22.036572,-2,0,-1,0,0,0,-1,-4
16:24:22.044508,0,-1,-1,0,-3,-1,-2,0
16:24:22.059500,1,1,0,-1,-1,-2,0,-1
16:24:22.074490,-1,-1,2,-2,0,-6,1,2
16:24:22.081486,1,-1,-2,-6,0,2,-5,10
16:24:22.082484,-1,0,1,-1,-2,5,2,-2
16:24:22.096479,-1,-1,1,-2,-1,-1,-7,-6
16:24:22.104472,0,1,0,-1,2,2,3,-1
16:24:22.119463,0,-2,1,2,2,-2,-1,-1
16:24:22.126463,-3,0,0,-2,-1,1,-2,-2
16:24:22.141448,0,-1,0,-1,3,-1,-2,-3
16:24:22.142455,0,-1,0,-1,1,1,-1,-2
16:24:22.156442,0,2,1,0,-1,-1,-2,0
16:24:22.164434,-4,-1,0,-3,0,-1,1,-3
16:24:22.179426,1,-3,-1,-1,-1,1,1,-1
16:24:22.186423,-3,-1,-1,1,1,-3,1,-2
16:24:22.209407,1,0,0,0,1,5,2,2
16:24:22.209407,-2,0,-3,3,3,1,-5,-3
16:24:22.216401,2,0,-1,0,-1,-3,-1,1
16:24:22.224398,-3,-1,-4,-2,2,0,-12,0
16:24:22.239388,-1,-1,1,3,-4,-2,0,-2
16:24:22.246385,-5,0,-1,-1,0,1,-9,0
16:24:22.261375,-1,-3,0,-1,-1,-1,2,1
16:24:22.262373,-1,-1,-3,-1,-3,0,0,-5
16:24:22.276375,-1,-3,-1,0,-1,1,-1,0
16:24:22.299352,-5,0,-2,-1,1,-1,-1,-3
16:24:22.306346,0,-1,0,-1,0,1,-1,1
16:24:22.307346,-1,-4,-2,-1,1,-2,0,1
16:24:22.321345,0,0,-1,-1,2,0,-2,-2
16:24:22.322337,-1,0,-1,-2,0,1,6,-1
16:24:22.337328,1,1,-2,0,0,0,-1,-1
16:24:22.344324,-2,0,-4,-3,-3,0,-4,-2
16:24:22.359315,2,1,0,0,0,0,-3,1
16:24:22.374306,0,2,-2,-1,-4,5,2,1
16:24:22.381301,1,-2,-3,0,1,2,3,-2
16:24:22.389296,-1,0,-2,-3,-1,-2,0,-1
16:24:22.396294,-1,0,-2,-1,-4,0,1,0
16:24:22.404286,2,-3,-2,2,4,-1,1,0
16:24:22.419276,2,1,-2,-5,-2,-4,-2,-3
16:24:22.426291,-2,0,-1,1,-1,-6,-5,1
16:24:22.441339,-1,0,0,-1,0,-2,3,0
16:24:22.442266,-2,0,-3,-1,-1,1,5,-2
16:24:22.456256,0,-3,-1,1,0,4,2,0
16:24:22.464250,-3,2,-3,-1,-1,-1,1,0
16:24:22.479241,1,0,-1,1,-1,-1,1,-1
16:24:22.494233,0,-1,-1,-1,1,-1,0,2
16:24:22.501227,0,-2,-2,0,0,-3,-3,-2
16:24:22.502226,-3,-1,-3,-4,-2,3,-5,1
16:24:22.517226,0,-1,0,0,-1,-1,-1,-1
16:24:22.524212,1,-3,0,-3,-3,-1,-1,0
16:24:22.539203,1,0,-2,0,-3,-4,2,0
16:24:22.546202,-3,-3,0,-2,-3,2,6,-3
16:24:22.561194,0,0,2,2,0,-3,-4,1
16:24:22.569185,1,1,-2,0,1,0,9,5
16:24:22.584177,-2,-3,-1,-1,-1,1,-4,-3
16:24:22.585188,-3,-2,-1,0,-4,-1,0,-4
16:24:22.599167,-1,1,-2,0,2,-2,-1,-2
16:24:22.607174,-1,1,-2,-4,-2,0,2,-3
16:24:22.622159,-1,0,1,2,3,-2,0,-1
16:24:22.629147,1,2,-1,-4,-1,0,-3,1
16:24:22.644139,-1,0,2,2,2,-3,6,1
16:24:22.644139,0,-1,3,2,1,4,-6,-1
16:24:22.659144,-2,0,-1,-2,1,0,-1,-3
16:24:22.667125,-1,-1,0,-2,1,-3,2,3
16:24:22.682115,0,1,0,2,-4,4,6,1
16:24:22.689111,-2,-3,1,-2,-1,2,-2,-2
16:24:22.704103,-1,0,2,-3,2,4,-3,-2
16:24:22.704103,-3,0,-3,1,-1,-1,3,3
16:24:22.719093,-1,0,0,1,-3,-5,0,-3
16:24:22.727087,0,-2,-1,-1,-3,0,10,1
16:24:22.742078,0,-1,0,-3,3,0,-13,-4
16:24:22.749074,-2,0,-1,-4,-3,-2,3,1
16:24:22.764064,-3,-3,0,-1,0,-3,-2,-4
16:24:22.765064,1,0,-2,-3,-3,-1,0,2
16:24:22.779055,-2,1,-2,0,0,-4,0,-1
16:24:22.787051,-3,-2,-3,-3,-6,-1,-2,-1
16:24:22.802042,3,-1,-1,1,2,-4,-1,-1
16:24:22.809043,-3,-3,-5,0,-4,-4,-6,2
16:24:22.824028,0,-2,-1,0,-1,0,2,0
16:24:22.825028,-2,1,-1,1,0,3,3,1
16:24:22.839072,1,2,-1,3,-1,-1,-2,1
