timestamp,emg1,emg2,emg3,emg4,emg5,emg6,emg7,emg8
15:35:12.146868,-1,3,3,9,1,2,1,-2
15:35:12.161858,-4,-1,-2,-3,2,2,-1,-1
15:35:12.161858,-1,1,-1,0,-2,-3,0,-2
15:35:12.176849,-4,-5,-1,-1,-2,-1,0,2
15:35:12.184844,0,1,-1,-1,-4,0,-3,-1
15:35:12.199834,1,-2,1,3,0,-2,-1,0
15:35:12.206829,-2,-1,-1,2,2,-3,-1,0
15:35:12.221821,-1,-1,1,-1,0,2,-2,-3
15:35:12.221821,0,0,0,4,4,0,0,3
15:35:12.236811,0,0,-1,-2,0,0,-1,-1
15:35:12.244807,-2,2,-2,-3,-3,-1,0,-2
15:35:12.258800,-1,-3,-1,2,2,-2,-1,0
15:35:12.266795,-3,-4,-6,-1,3,2,-3,0
15:35:12.281784,-1,-2,-1,-3,-9,-1,-1,0
15:35:12.281784,-4,-2,-2,1,4,-2,2,-2
15:35:12.296773,-2,3,1,-4,-4,-1,2,-1
15:35:12.303780,0,0,-3,-1,2,6,-2,-1
15:35:12.318780,-2,0,-3,-1,-8,-3,-3,-1
15:35:12.326756,-3,0,-3,-1,3,1,-4,1
15:35:12.341747,-2,-2,-1,-2,2,0,-2,-3
15:35:12.341747,-2,-3,1,0,3,2,1,0
15:35:12.356737,2,1,-3,9,2,0,-1,2
15:35:12.364731,-3,0,-1,-4,-5,-2,-1,-4
15:35:12.379724,1,0,1,-2,1,-2,-1,-1
15:35:12.386718,-1,-4,-1,0,-2,1,0,-3
15:35:12.401708,2,-1,-1,-1,0,2,-1,1
15:35:12.401708,-1,-2,-1,-1,-3,-1,-2,-1
15:35:12.416700,-3,1,0,0,-1,-1,0,0
15:35:12.423698,-1,-2,0,-2,-1,-1,0,-2
15:35:12.438689,-3,0,-3,-4,1,0,0,-2
15:35:12.453679,0,-1,0,1,1,-1,-2,-1
15:35:12.461671,-2,0,-1,1,-6,2,-2,-5
15:35:12.461671,-1,-5,-4,-5,2,-1,-1,-1
15:35:12.476662,0,-1,2,-2,-3,1,2,0
15:35:12.484657,0,2,-3,-1,-2,-2,-1,4
15:35:12.506645,-3,-1,0,1,1,-1,-3,0
15:35:12.506645,-4,0,2,-1,4,0,0,2
15:35:12.529629,-1,-1,-2,1,0,-1,3,-2
15:35:12.529629,2,1,0,3,3,-1,1,-3
15:35:12.536625,-1,1,-1,1,-3,3,-1,-1
15:35:12.544621,0,1,0,-2,0,-2,-3,0
15:35:12.559610,0,-3,0,1,0,-1,-4,-2
15:35:12.566624,-1,1,-2,0,1,1,0,1
15:35:12.581597,-4,-1,-1,3,2,1,-1,-1
15:35:12.582598,2,-2,2,6,2,0,0,-3
15:35:12.597592,0,-4,-1,-1,-3,-2,-3,-1
15:35:12.604583,1,2,1,-3,2,2,0,0
15:35:12.619574,-1,-3,0,0,4,2,1,1
15:35:12.626576,1,-1,0,-1,-8,-3,-1,1
15:35:12.641561,-1,0,1,1,3,-1,-1,-3
15:35:12.642560,-2,1,0,0,-2,-1,-1,-1
15:35:12.656554,0,0,-2,0,-4,-1,-3,0
15:35:12.664547,-1,0,-2,0,3,1,-1,-1
15:35:12.679537,-1,1,4,3,7,0,-2,2
15:35:12.687532,2,0,2,1,9,0,-2,4
15:35:12.702523,0,0,0,-2,-5,-1,0,1
15:35:12.702523,-1,-2,0,3,4,-6,-2,-3
15:35:12.716521,-2,-2,-1,-4,-5,-1,-1,-3
15:35:12.724510,-4,0,-2,-2,3,1,-4,-1
15:35:12.739503,2,-2,1,-1,-5,-2,-1,-1
15:35:12.754493,1,-1,-1,0,-3,-1,-2,2
15:35:12.769484,1,0,1,2,2,3,3,-2
15:35:12.769484,0,0,1,1,1,-1,-2,-3
15:35:12.777479,0,-1,-1,2,2,1,2,0
15:35:12.784475,-4,0,-3,-2,-4,1,-2,-2
15:35:12.799465,-1,-2,-1,-1,1,0,-1,-2
15:35:12.807462,-3,-3,-1,0,2,-2,1,2
15:35:12.822448,-1,-3,-2,2,6,0,-3,-1
15:35:12.822448,0,-1,1,1,1,-2,0,0
15:35:12.837443,-1,0,-1,-10,-14,-3,0,-1
15:35:12.844438,0,1,0,4,2,-6,0,0
15:35:12.867421,1,0,1,-3,-4,0,-2,-2
15:35:12.867421,0,-4,-2,-2,1,1,-3,0
15:35:12.882413,2,-1,-2,-2,-1,0,2,-2
15:35:12.882413,-3,-2,0,-1,-3,-1,0,3
15:35:12.904397,0,1,-1,-1,0,0,-1,1
15:35:12.905403,0,0,-1,1,3,1,1,-5
15:35:12.919388,0,-1,0,-2,0,2,-3,1
15:35:12.927384,-2,-3,0,2,-8,-2,-3,-4
15:35:12.942374,-1,-3,0,-3,4,2,1,-2
15:35:12.949369,-1,0,-1,-3,-1,-3,2,-1
15:35:12.964361,-1,-2,-1,5,0,-4,-3,-3
15:35:12.965360,-2,-2,-1,3,3,-3,0,-3
15:35:12.980351,0,-1,-5,-3,-4,1,-3,-3
15:35:12.987346,-1,-1,-1,0,0,-3,0,-1
15:35:13.002340,0,-1,-3,-3,0,-3,-1,0
15:35:13.009333,0,-2,-2,-3,1,2,-3,-3
15:35:13.024323,-1,-1,-3,4,-8,-1,0,-4
15:35:13.025324,-1,-3,-2,0,5,1,-5,-1
15:35:13.039317,-2,-2,-3,-5,-3,-2,-3,-4
15:35:13.047312,-1,-1,-3,1,-5,-3,-3,-6
15:35:13.062301,-3,-2,-1,0,4,-2,-1,3
15:35:13.069298,-1,-2,-2,-3,4,0,-2,-1
15:35:13.084289,1,-3,-1,0,1,2,-2,-1
15:35:13.085288,5,3,-1,4,9,-4,-1,-1
15:35:13.099279,-3,-1,-2,3,-2,-2,-3,-1
15:35:13.107272,0,-1,-2,0,-2,3,1,-2
15:35:13.122263,1,0,-1,-4,-1,3,-2,-4
15:35:13.130258,2,-1,1,1,4,-3,-2,1
15:35:13.144249,-2,1,0,-3,-3,-2,-1,-1
15:35:13.145248,-1,0,2,-3,1,1,-1,0
15:35:13.159241,3,-2,-1,-1,-2,1,-1,2
15:35:13.167236,-3,-1,0,-1,-8,2,1,0
15:35:13.182229,-2,2,-2,-5,-1,-1,0,1
15:35:13.189221,-1,1,3,-1,0,0,-2,-1
15:35:13.204214,-1,-1,-1,-1,1,2,-1,-1
15:35:13.205214,-1,-5,-2,2,-4,-2,-3,-4
15:35:13.219203,0,-1,-2,2,-3,-1,0,-1
15:35:13.227197,-3,-3,-1,1,5,2,-1,0
15:35:13.242191,1,-1,0,-2,-3,-3,-3,-1
15:35:13.250185,-2,-3,-3,1,-7,-1,0,0
15:35:13.264175,-1,-2,0,1,1,-5,1,1
15:35:13.265177,-2,0,0,1,-7,-3,-2,-4
15:35:13.280165,0,1,2,3,2,2,-2,-2
15:35:13.287163,0,1,-2,-3,0,0,-1,-4
15:35:13.309149,0,0,1,1,-1,-4,2,0
15:35:13.310146,-1,-1,0,-2,-1,0,0,-2
15:35:13.324140,-1,-1,0,-1,-3,-4,-2,0
15:35:13.325139,1,-3,1,2,4,-1,-3,-2
15:35:13.340130,1,1,-2,1,2,0,-1,2
15:35:13.347126,0,-2,-3,-2,-10,-2,0,-3
15:35:13.362115,1,-3,-2,-5,-8,-3,-1,3
15:35:13.369111,0,-2,-4,-3,2,0,-2,0
15:35:13.392098,2,-3,-3,-2,3,2,0,2
15:35:13.392098,-2,-1,3,-1,-1,-1,-1,-3
15:35:13.400090,-1,-2,2,-1,0,0,1,1
15:35:13.407089,-1,-1,-1,1,-4,0,2,0
15:35:13.422080,1,0,0,0,-1,-2,-2,0
15:35:13.430072,-1,-2,-1,-1,-2,-2,-2,-3
15:35:13.445064,2,1,1,1,-2,-3,-2,2
15:35:13.446063,-1,0,-2,-1,3,0,0,0
15:35:13.460055,1,-3,-1,0,-5,0,0,0
15:35:13.467049,0,2,-1,-5,0,1,-1,-1
15:35:13.482042,2,1,1,7,1,0,0,1
15:35:13.490035,-5,-1,-1,2,1,-1,-4,-3
15:35:13.505025,0,0,2,0,4,3,1,0
15:35:13.505025,0,-1,0,2,-2,-3,-2,-1
15:35:13.520019,-3,-3,-3,-3,-1,-4,-3,-1
15:35:13.527014,-1,2,-1,-2,-12,-4,-2,0
15:35:13.542005,1,-2,-1,2,-11,-3,1,-2
15:35:13.550000,-5,-4,0,-1,5,2,-4,-5
15:35:13.564991,2,2,-1,-1,2,1,0,2
15:35:13.564991,0,-1,0,0,0,-2,-1,-4
15:35:13.579982,0,-1,0,6,1,-2,-1,-1
15:35:13.586977,-2,1,1,0,-1,-2,-1,1
15:35:13.609962,0,0,-2,0,4,1,1,-1
15:35:13.609962,0,-2,-2,-17,-9,-1,0,-3
15:35:13.623957,0,-6,-2,3,8,-1,-2,-3
15:35:13.624953,-2,-3,1,-1,3,-2,3,0
15:35:13.639945,-2,-2,1,-2,5,0,-1,3
15:35:13.646937,-1,-1,-2,1,4,-1,-1,-3
15:35:13.661928,-1,-2,-1,0,4,-2,-2,1
15:35:13.669923,-3,-1,-1,3,-1,-2,-3,-2
15:35:13.684913,-2,0,-1,3,6,0,-2,-1
15:35:13.684913,0,0,-1,-3,-8,-3,-1,1
15:35:13.699905,-1,-2,-1,0,1,0,0,-1
15:35:13.706900,1,-1,1,-4,-3,2,1,0
15:35:13.722893,-2,-4,-3,-2,-3,-3,2,0
15:35:13.729885,-3,-2,-3,0,-2,-1,1,0
15:35:13.744877,1,-1,1,-2,-3,-4,-1,1
15:35:13.744877,-3,-2,0,-3,-3,-2,-2,-2
15:35:13.759867,-1,-3,-3,0,1,1,-1,0
15:35:13.766865,2,-3,-1,-2,-6,-3,-3,1
15:35:13.781856,-1,1,0,-3,-5,-3,-3,-1
15:35:13.789849,-1,1,0,5,-4,-3,-1,2
15:35:13.804841,-2,0,-3,-3,-2,2,4,-3
15:35:13.804841,1,-1,0,0,-2,-4,-1,2
15:35:13.819833,-2,0,1,5,6,1,1,2
15:35:13.826825,1,1,0,-2,-4,0,-1,2
15:35:13.841817,-1,-2,-1,0,4,1,-1,-1
15:35:13.849812,-1,0,1,1,-1,-2,0,0
15:35:13.864806,0,4,0,0,-2,2,-1,-2
15:35:13.871799,0,-3,1,-6,0,3,-1,-1
15:35:13.886788,1,-1,-2,1,5,0,-4,-3
15:35:13.887791,-2,-5,-4,-2,3,-3,-4,-3
15:35:13.901781,3,-1,-1,2,6,0,1,0
15:35:13.909777,-3,-3,1,4,1,-2,-1,-3
15:35:13.924768,7,0,0,1,2,-2,0,3
15:35:13.931763,0,0,-1,1,-4,-4,-2,0
15:35:13.946754,4,0,1,2,4,2,1,2
15:35:13.947753,1,3,0,-2,-1,-2,-3,-3
15:35:13.961741,1,2,-1,4,4,-5,-3,-4
15:35:13.977733,-4,-1,0,1,0,-1,-4,-1
15:35:13.984728,-8,1,2,2,5,3,-3,-10
15:35:13.991724,-7,6,-2,0,2,-3,-1,-6
15:35:14.006714,-5,-3,-1,-3,-2,-1,9,1
15:35:14.007713,-2,0,-2,-1,-2,0,-1,0
15:35:14.021707,0,2,-1,5,7,3,1,0
15:35:14.029700,0,-1,-2,-2,-5,-3,-3,-2
15:35:14.044690,0,-3,-3,-3,3,-1,-2,-1
15:35:14.051686,24,-5,-1,-1,0,3,2,5
15:35:14.066679,-4,-1,-3,-2,-5,-10,-4,-3
15:35:14.067679,-3,-2,1,-3,-4,-1,0,-6
15:35:14.082670,-5,2,-1,-2,5,2,-2,-4
15:35:14.089665,1,-2,-1,-5,-2,-1,1,4
15:35:14.104653,-1,5,2,8,7,5,-1,0
15:35:14.111651,1,-1,1,-2,3,1,1,2
15:35:14.126640,1,-1,-2,-4,-1,-4,0,0
15:35:14.127639,-1,-3,1,0,-5,-1,-3,-3
15:35:14.141631,1,2,-1,1,-1,-2,0,-2
15:35:14.149628,0,-5,-2,-1,-7,0,-2,2
15:35:14.171614,-1,-2,1,-2,2,1,-3,-1
15:35:14.172613,-1,2,3,-5,-3,1,-1,2
15:35:14.186602,-1,-4,-5,-30,-6,1,0,3
15:35:14.187602,1,2,13,7,2,3,0,-2
15:35:14.202593,-1,-2,-10,-7,-2,-6,2,-2
15:35:14.209588,-3,1,-2,2,1,-1,-2,-2
15:35:14.231575,1,5,4,-4,5,5,4,1
15:35:14.232574,-3,-4,-9,-29,-23,-7,-2,-4
15:35:14.247565,-9,-8,-1,3,-9,-9,-7,-10
15:35:14.247565,11,24,58,13,27,18,7,9
15:35:14.262557,-6,-19,-53,-128,-51,-21,-5,-2
15:35:14.269554,-5,4,7,25,-37,3,-2,-5
15:35:14.284544,3,-2,-6,-23,-17,3,1,0
15:35:14.291542,7,17,29,24,44,8,3,7
15:35:14.306529,-12,-19,-1,120,55,4,-5,-7
15:35:14.307530,14,24,9,36,42,2,6,8
15:35:14.322519,-14,-28,-12,29,-92,-25,-9,-10
15:35:14.329515,13,21,-55,-128,85,28,8,8
15:35:14.344507,-12,-38,-85,-128,-128,-82,-15,-6
15:35:14.352503,3,32,26,122,42,20,3,-4
15:35:14.367493,-25,-42,-5,127,-74,-7,-18,-15
15:35:14.367493,22,23,-122,80,-58,-11,13,20
15:35:14.382483,-45,-72,-54,-128,-128,-128,-42,-37
15:35:14.389477,21,72,10,127,127,46,3,-3
15:35:14.404467,10,-58,-128,-128,-128,-128,2,24
15:35:14.412465,-54,-3,51,80,-128,-128,-46,-47
15:35:14.427453,-45,-47,42,127,127,80,-14,-41
15:35:14.427453,29,-1,-14,127,127,50,25,24
15:35:14.442447,-14,5,20,127,127,-21,-18,-12
15:35:14.449439,42,68,-70,3,-128,26,26,31
15:35:14.464433,-84,-101,-8,-20,127,-50,-55,-61
15:35:14.472425,44,55,11,-38,127,48,28,33
15:35:14.487416,-17,-32,-14,-18,70,-6,-10,-8
15:35:14.487416,12,23,9,-51,-30,19,7,9
15:35:14.502409,9,6,16,14,-39,5,2,6
15:35:14.509405,-13,-20,-22,-31,-11,-3,6,-7
15:35:14.524396,0,31,11,-29,-20,-1,-7,4
15:35:14.532389,0,-24,25,127,34,1,-37,10
15:35:14.547379,-22,-79,-32,85,93,15,-6,13
15:35:14.547379,22,-37,127,127,127,71,42,34
15:35:14.562369,24,79,-14,-128,-128,-34,10,-3
15:35:14.569367,-65,-128,-128,48,-128,-76,-33,-10
15:35:14.584358,43,77,93,28,22,45,23,18
15:35:14.599346,26,45,-25,124,127,23,6,13
15:35:14.606345,-53,-128,-14,127,-78,2,3,5
15:35:14.607341,-9,3,1,106,52,30,-7,-16
15:35:14.622335,67,97,56,127,127,53,24,29
15:35:14.629331,45,113,60,-128,-45,3,8,10
15:35:14.644318,-31,-81,-48,-87,-14,-10,-4,-14
15:35:14.652316,69,42,-36,-128,-128,-128,4,33
15:35:14.667304,-76,-71,-13,-41,-128,42,-26,-46
15:35:14.667304,107,127,127,127,-9,-12,17,30
15:35:14.682294,-31,-60,54,127,127,71,8,-1
15:35:14.697289,25,53,-17,-128,-128,-34,-3,4
15:35:14.705281,-15,-58,-55,-24,88,41,6,8
15:35:14.712278,20,60,54,26,114,-15,-10,-5
15:35:14.727267,25,53,40,-107,-128,-49,-1,4
15:35:14.727267,-5,7,-13,-79,-95,0,-2,-9
15:35:14.742258,4,-1,17,18,-40,9,11,3
15:35:14.750256,-8,-21,-14,-105,126,35,2,-2
15:35:14.767243,-4,-34,-15,63,127,70,5,2
15:35:14.772239,-47,-86,-107,-98,-128,-43,-13,-20
15:35:14.794226,16,28,-33,-128,-128,-48,-2,7
15:35:14.795225,8,26,43,48,127,43,4,2
15:35:14.810215,6,11,-5,-11,-128,-28,-1,2
15:35:14.810215,-19,-23,5,70,-119,-13,-5,-9
15:35:14.828208,-35,-68,-78,-6,-13,-11,-12,-17
15:35:14.832205,-46,-105,-93,-3,127,67,-7,-6
15:35:14.854191,17,39,19,-23,-31,-4,-1,0
15:35:14.855188,-20,-35,-62,-128,13,-20,-7,-9
15:35:14.869182,-42,-62,-58,-11,18,-33,-16,-20
15:35:14.870181,24,56,65,116,127,74,7,9
15:35:14.888170,-7,-10,-6,-2,-128,-26,-3,-6
15:35:14.892167,6,-2,37,127,44,12,5,5
15:35:14.907158,10,14,60,127,127,10,2,6
15:35:14.915150,12,24,15,-51,-94,-40,-3,2
15:35:14.929145,-17,-39,-45,-64,-110,-30,-2,-5
15:35:14.930144,-24,-42,-30,26,127,-29,-7,-10
15:35:14.948133,13,27,-20,-128,54,-32,-3,0
15:35:14.952130,-17,-45,-38,-35,-15,-16,-2,-5
15:35:14.967121,6,-11,-33,-51,-27,10,5,10
15:35:14.974117,17,38,8,-108,-24,-3,-1,4
15:35:14.989107,-17,-30,-14,2,-76,-26,-1,-4
15:35:14.990107,-47,-115,-128,-128,-58,27,-13,-18
15:35:15.008096,11,19,-24,-8,35,-32,0,5
15:35:15.012093,7,5,-15,-59,21,17,10,5
15:35:15.027081,6,11,-6,-49,-35,-37,-1,-1
15:35:15.035079,7,30,16,30,23,5,-3,-4
15:35:15.049070,-6,-11,-4,127,127,50,-1,-1
15:35:15.050070,15,12,24,12,48,8,5,6
15:35:15.080049,9,17,26,-29,-64,-40,-1,2
15:35:15.080049,-6,-19,-17,-23,-64,-22,-7,-3
15:35:15.087045,7,-6,-9,-20,57,6,-3,2
15:35:15.102035,-30,-60,-53,-41,114,-26,-9,-12
15:35:15.109030,6,10,9,1,7,14,4,2
15:35:15.110030,6,8,5,4,-92,-24,0,2
15:35:15.128019,8,15,2,4,7,19,4,-1
15:35:15.132016,5,7,2,4,-56,-10,0,3
15:35:15.155008,8,14,13,127,127,36,-1,1
15:35:15.155008,15,27,10,-117,-68,-19,3,3
15:35:15.168993,-18,-25,-18,-19,-9,2,-9,-12
15:35:15.169993,12,5,6,21,-43,-8,6,12
15:35:15.187984,-16,-25,-8,42,58,22,-3,-4
15:35:15.191982,4,8,2,-21,-24,-8,-1,0
15:35:15.206973,18,26,21,57,64,8,8,9
15:35:15.214968,-6,-12,-13,-43,-35,10,-2,-1
15:35:15.229956,3,4,2,-12,-6,6,2,0
15:35:15.229956,0,-1,19,62,23,-6,0,4
15:35:15.247945,1,3,4,35,-5,3,2,4
15:35:15.251942,1,-1,0,60,65,26,4,1
15:35:15.266935,-2,-5,-5,-19,-8,-7,-1,-1
15:35:15.274929,-5,-11,2,30,87,42,-1,-3
15:35:15.289918,12,9,10,31,44,21,9,5
15:35:15.289918,5,4,-5,-27,-37,-8,1,4
15:35:15.307910,4,2,13,88,127,24,6,6
15:35:15.311905,7,17,-16,-128,-92,-5,1,1
15:35:15.326895,-25,-45,-31,-19,-25,-18,-10,-12
15:35:15.334892,12,23,21,-1,41,-3,-1,4
15:35:15.349882,-3,0,0,0,12,-3,-1,-2
15:35:15.349882,-12,-7,-13,-54,-52,-27,-8,-10
15:35:15.367873,10,11,7,-27,-10,-3,3,0
15:35:15.371870,0,2,-8,-40,-24,-5,2,-3
15:35:15.386860,19,18,58,127,127,33,14,14
15:35:15.394859,1,0,4,-5,-14,-5,1,1
15:35:15.409845,11,12,0,-23,-14,-14,0,2
15:35:15.409845,-25,-44,-43,1,-25,-2,-12,-12
15:35:15.427834,-7,-7,-8,18,4,-2,-1,-5
15:35:15.431833,14,5,21,63,127,9,5,11
15:35:15.446824,1,-16,-23,-16,69,-1,-1,3
15:35:15.454819,15,12,-4,-1,127,12,5,16
15:35:15.469807,6,6,-17,-125,-128,-128,-11,-4
15:35:15.469807,-60,-123,-67,95,-128,94,-8,-22
15:35:15.487798,-6,-39,-19,127,127,68,19,16
15:35:15.491793,-3,4,-15,-44,-35,-26,-9,-14
15:35:15.506786,13,34,17,-51,-128,-36,9,11
15:35:15.514779,9,4,-3,-48,84,-15,1,6
15:35:15.529770,3,2,-7,-68,-128,-67,-4,1
15:35:15.529770,-16,-16,-8,14,-9,2,-9,-9
15:35:15.547758,2,2,-1,-16,-26,-8,1,4
15:35:15.551756,2,6,2,0,-128,1,-1,-1
15:35:15.566748,-4,-1,-3,-5,-10,-3,1,-3
15:35:15.574742,-4,2,2,-4,-16,-6,-5,-3
15:35:15.589732,0,-1,-1,-1,-4,-1,4,2
15:35:15.589732,-3,0,-4,-4,-1,-5,-11,2
15:35:15.607721,2,0,3,-1,1,5,-6,-9
15:35:15.612720,-7,-1,-3,0,-3,-10,27,4
15:35:15.626711,-15,-13,-7,-7,2,19,23,-4
15:35:15.634704,-26,0,9,7,10,-11,-20,7
15:35:15.649698,-32,-28,-10,-5,-2,16,-100,33
15:35:15.649698,-20,16,10,7,-3,-5,16,-21
15:35:15.664686,-15,-20,-8,-11,-5,1,-128,57
15:35:15.671681,40,55,24,10,22,80,48,34
15:35:15.687672,-49,-28,-21,-13,-9,-61,80,32
15:35:15.694670,127,2,4,1,-10,-23,-128,127
15:35:15.709661,-126,4,-8,1,-51,-108,-72,-128
15:35:15.709661,80,41,16,4,24,24,-128,127
15:35:15.724649,-105,-20,-5,2,-17,-67,117,-128
15:35:15.731646,-70,14,17,18,25,-20,32,-119
15:35:15.747636,-51,-44,-30,-35,-18,-24,-74,17
15:35:15.754633,14,10,8,23,12,2,-30,10
15:35:15.769621,12,2,-36,-128,-128,-14,-22,13
15:35:15.776621,12,1,26,127,127,22,-3,20
15:35:15.799605,-8,1,-1,-18,-14,12,-7,-8
15:35:15.806597,36,-37,-22,-128,-57,-5,-10,5
15:35:15.807597,-10,2,14,127,52,-14,-10,-20
15:35:15.814593,-3,-26,-27,-35,-58,4,-10,-42
15:35:15.829584,-58,41,-20,50,31,7,-32,-50
15:35:15.836581,-5,61,-58,100,-128,-10,-1,9
15:35:15.851572,-128,-80,8,-117,94,-18,-56,-68
15:35:15.852572,42,-7,-17,17,111,29,12,11
15:35:15.867562,-44,26,22,-72,-100,14,28,-73
15:35:15.874558,-37,-26,-27,12,46,-63,32,15
15:35:15.889546,-111,7,17,-16,-122,-5,-84,-42
15:35:15.897541,-14,-1,-5,56,-67,15,116,-36
15:35:15.919528,5,4,1,18,-128,-29,-8,27
15:35:15.919528,-12,-15,-26,-101,-19,13,32,2
15:35:15.926525,-10,15,19,11,72,4,-29,-32
15:35:15.934519,127,-1,26,-32,127,93,34,40
15:35:15.949510,-38,3,7,32,127,26,8,15
15:35:15.956507,18,12,22,-128,-128,-11,-8,17
15:35:15.971495,-16,-20,-5,101,11,4,1,-11
15:35:15.972496,8,-1,12,18,-14,-6,16,5
15:35:15.986512,-1,-1,8,6,-68,-11,-3,2
15:35:15.994481,-39,16,20,0,-43,16,53,49
15:35:16.009471,25,-5,-26,-128,-128,-34,2,22
15:35:16.016486,-35,-16,-40,-128,-128,-45,-20,-30
15:35:16.031461,-26,-19,-34,-128,-43,-23,-21,-31
15:35:16.032457,-14,-12,4,67,-128,8,5,-38
15:35:16.046510,-4,1,-39,-113,17,-19,-18,-3
15:35:16.054444,-21,-5,-5,38,8,-19,61,-3
15:35:16.069435,-2,-10,-13,-95,-88,11,-11,-3
15:35:16.076433,-97,3,10,-109,-128,-24,26,-13
15:35:16.091420,46,10,-6,-20,-128,23,56,99
15:35:16.092421,22,31,4,-89,-128,-6,10,45
15:35:16.106417,-23,-13,-8,127,124,12,-8,-18
15:35:16.114406,-9,-3,-2,-16,123,60,50,-9
15:35:16.129397,3,7,50,106,38,3,-23,-3
15:35:16.136396,33,8,-11,-18,-27,34,31,6
15:35:16.151384,-16,-7,-40,8,-17,-29,-115,-28
15:35:16.152384,-20,-5,8,127,-47,5,8,-16
15:35:16.166377,-38,-19,14,127,93,-26,-79,-51
15:35:16.174368,-40,7,23,39,54,3,-2,9
15:35:16.189361,4,9,-12,53,28,-8,-24,1
15:35:16.196358,0,-2,7,5,-16,-26,-26,-8
15:35:16.211347,8,12,37,21,72,41,17,10
15:35:16.212345,-23,-2,-19,-37,-23,-3,-7,-3
15:35:16.226358,-1,3,13,-31,27,-2,-12,-22
15:35:16.234333,12,2,-19,-38,-45,-15,2,19
15:35:16.249323,21,7,45,1,-34,33,29,24
15:35:16.256321,12,1,9,47,-24,3,21,22
15:35:16.271314,-10,-13,-6,68,101,-20,-58,-23
15:35:16.272308,-2,10,-17,-104,-86,-13,-10,12
15:35:16.286303,31,1,-2,28,-10,-1,5,23
15:35:16.294295,-22,-8,-2,-78,12,8,12,-12
15:35:16.309286,-12,-4,-21,-4,-68,-13,-9,-14
15:35:16.316284,7,15,2,-44,127,4,11,19
15:35:16.331282,-6,-10,-2,68,-28,-26,4,6
15:35:16.332272,-13,-9,4,25,-10,3,9,-3
15:35:16.347262,-5,2,6,43,5,9,-10,-18
15:35:16.354257,-8,2,4,90,8,-9,-7,-23
15:35:16.369248,-10,2,-2,25,12,5,-16,2
15:35:16.384239,2,4,-6,8,20,12,-8,1
15:35:16.391237,2,1,12,8,-63,-5,-16,-15
15:35:16.392247,5,4,-31,-128,-128,-14,-2,0
15:35:16.407228,-23,-15,0,115,91,-10,-10,-8
15:35:16.415221,-5,0,2,10,19,-12,-11,-13
15:35:16.430211,0,0,-20,-13,-28,-7,3,1
15:35:16.437209,-18,-5,10,-5,-25,-6,-12,-15
15:35:16.452197,-10,-2,4,14,93,4,-5,-11
15:35:16.452197,-25,5,-2,30,44,3,20,-17
15:35:16.467188,4,2,5,74,39,-1,-11,15
15:35:16.474185,-4,0,-9,24,124,26,15,2
15:35:16.489177,-2,0,-31,20,-40,-8,1,-11
15:35:16.497173,-21,-24,3,-4,-52,-16,-13,-23
15:35:16.512162,-3,1,2,46,93,14,-2,-1
15:35:16.513163,11,4,5,-7,-98,-14,10,19
15:35:16.527151,-1,-2,-3,32,18,-2,-8,-6
15:35:16.542145,39,2,8,12,12,9,9,21
15:35:16.557132,22,-2,-2,-18,-80,-4,-11,-1
15:35:16.557132,-9,-6,-1,27,-75,-11,-18,-8
15:35:16.572126,-5,-7,1,39,54,-5,-15,-11
15:35:16.572126,1,0,-27,-128,-128,-4,3,-1
15:35:16.587117,-9,-9,3,58,-16,-11,-3,-12
15:35:16.601105,13,2,3,0,14,9,8,12
15:35:16.609102,4,0,-3,-25,-11,-1,10,17
15:35:16.617098,-9,-2,0,-5,53,3,-2,-8
15:35:16.639081,-6,-2,4,7,44,0,-1,-7
15:35:16.640083,5,6,1,-23,-52,-9,3,3
15:35:16.647079,3,-2,13,9,127,31,1,4
15:35:16.654074,0,-1,-10,-51,-44,-17,0,-1
15:35:16.670065,2,-2,8,36,35,9,8,11
15:35:16.677060,-2,-4,-12,-1,50,-2,-1,-4
15:35:16.692052,-1,1,2,1,-5,-5,1,2
15:35:16.692052,1,-1,-3,-5,-8,-3,-5,-1
15:35:16.714037,0,2,-1,-4,-7,0,2,1
15:35:16.715035,-1,1,-3,-43,-29,-3,-3,0
15:35:16.730028,1,-1,-5,-128,-128,-11,2,2
15:35:16.737023,-11,-12,-6,49,54,-5,-8,-12
15:35:16.752014,1,4,-1,5,21,2,1,-3
15:35:16.760009,4,3,4,1,-9,3,2,3
15:35:16.773998,-3,0,0,-3,-4,-2,-1,0
15:35:16.774997,0,1,-2,-7,-10,-5,-4,-1
15:35:16.789991,-3,0,1,-3,-1,-4,-2,1
15:35:16.796986,0,3,1,-20,18,2,0,1
15:35:16.811975,0,-2,-3,90,46,1,3,-1
15:35:16.819972,-7,-6,-3,3,87,-6,-5,-11
15:35:16.833961,2,2,3,13,-11,2,8,7
15:35:16.834963,-3,0,-7,-69,-1,4,-3,-4
15:35:16.849954,-2,-5,1,23,-5,-4,-4,-2
15:35:16.856949,-2,2,3,5,4,4,1,-2
15:35:16.871940,-7,-3,-2,-35,14,-5,-3,-3
15:35:16.879935,-2,1,-4,4,4,-6,-6,-1
15:35:16.894922,0,0,-4,9,18,1,-1,1
15:35:16.894922,-4,0,-4,-40,-12,-5,-8,-8
15:35:16.909917,-2,1,4,79,-29,-1,0,-1
15:35:16.916912,1,1,-5,45,8,1,0,2
15:35:16.931903,0,1,3,-22,-81,-5,-6,-3
15:35:16.939897,-1,2,4,16,26,-1,-1,0
15:35:16.953886,2,-2,3,-2,-4,-4,-1,-1
15:35:16.954886,-1,-1,-4,7,-30,-3,0,-1
15:35:16.969880,-3,-3,0,14,12,0,-3,-3
15:35:16.976874,1,1,1,-2,-4,0,-1,-1
15:35:16.991865,-3,-1,-2,-7,-33,-3,-3,-4
15:35:16.999860,-1,-1,-3,-7,-42,0,1,1
15:35:17.014849,0,2,3,47,-48,4,-1,2
15:35:17.014849,-4,-5,0,-6,-11,-7,-5,-7
15:35:17.029842,-1,-2,-3,-43,21,2,2,0
15:35:17.036838,0,-4,-3,18,0,-2,2,-1
15:35:17.059820,-2,0,-2,0,2,3,-1,-1
15:35:17.059820,0,1,0,0,-1,-2,0,-2
15:35:17.074813,-1,-3,-3,1,3,2,0,-1
15:35:17.074813,2,-1,-3,-4,10,-4,-2,-4
15:35:17.089805,2,5,1,-55,-110,-5,0,1
15:35:17.096800,-2,-4,-2,28,-46,-6,-4,-2
15:35:17.111788,5,4,-1,4,13,7,5,4
15:35:17.119786,-1,-1,2,1,-5,-1,0,2
15:35:17.134774,-3,-2,-2,2,6,0,3,-1
15:35:17.134774,-5,-4,-7,-1,-8,-3,-1,-3
15:35:17.149767,-2,-1,0,-11,-5,1,1,-2
15:35:17.156760,3,1,1,2,56,4,3,3
15:35:17.172753,2,1,1,1,-37,-5,-2,1
15:35:17.179749,-7,-5,-3,4,-46,-5,1,-6
15:35:17.194738,4,2,0,5,6,4,-1,3
15:35:17.195740,0,1,1,-4,2,3,2,2
15:35:17.209730,-2,-5,-3,-3,2,-3,-2,-4
15:35:17.216724,2,0,2,3,11,-2,0,0
15:35:17.232717,-2,-4,-4,7,17,1,-3,-4
15:35:17.239712,-1,-1,-1,15,1,-3,-3,-1
15:35:17.254701,-3,-3,1,-7,10,0,-2,-1
15:35:17.254701,-1,0,-3,0,-4,-2,3,5
15:35:17.269693,-1,-2,-2,7,-40,0,0,-1
15:35:17.284683,0,-5,3,37,53,3,-2,-1
15:35:17.291679,1,0,-1,-74,-4,4,-1,3
15:35:17.299674,0,-2,0,12,3,-4,-1,-3
15:35:17.314665,2,1,0,23,-6,-1,0,3
15:35:17.315665,2,0,-1,2,34,5,2,4
15:35:17.329656,1,2,4,7,21,-3,0,1
15:35:17.337652,-3,-1,-5,-13,-43,-3,1,1
15:35:17.352646,5,4,2,0,14,12,4,8
15:35:17.359637,-3,-3,-4,13,24,2,-3,0
15:35:17.374628,0,0,-4,-11,-3,-3,-1,-2
15:35:17.375627,0,1,-1,0,-6,0,-2,-1
15:35:17.389619,-1,1,-1,-6,17,0,-2,-1
15:35:17.397614,1,3,1,12,20,1,-2,0
15:35:17.412602,-1,-1,2,9,3,-7,-1,-2
15:35:17.419600,1,2,0,-4,-88,-5,2,4
15:35:17.434591,-3,-3,-3,0,-7,-2,-1,-4
15:35:17.434591,-3,1,-1,-4,2,2,0,-2
15:35:17.449578,0,1,0,-5,-21,-1,1,-1
15:35:17.457574,-1,-1,0,-3,0,1,-3,-2
15:35:17.479564,0,-3,-6,-8,4,1,0,1
15:35:17.479564,-2,-4,0,25,-24,-3,1,-3
15:35:17.494552,-4,3,-2,-2,-26,-3,-1,-3
15:35:17.495554,1,2,2,-17,-43,5,1,0
15:35:17.509544,-3,-6,-2,0,10,-1,-5,-4
15:35:17.517539,-1,-1,2,5,-3,-2,0,2
15:35:17.532530,-2,3,3,-2,0,-2,2,3
15:35:17.539526,1,0,1,-3,-9,-6,-3,-3
15:35:17.554517,0,0,0,10,44,8,3,1
15:35:17.555516,0,-1,0,-48,3,-2,-2,-2
15:35:17.569507,1,-2,-4,1,0,-2,-4,-4
15:35:17.577500,-1,-1,-2,-5,-3,-1,-1,0
15:35:17.592493,0,-1,-2,10,2,1,0,0
15:35:17.599489,-4,0,-1,4,11,-1,2,1
15:35:17.614479,-4,-1,-2,-1,11,-5,0,-3
15:35:17.615479,1,1,5,-3,-32,-2,-1,0
15:35:17.629470,2,-1,0,7,-75,4,2,3
15:35:17.637465,-3,-3,1,25,-6,1,-3,-6
15:35:17.652456,0,0,-1,4,-4,3,3,0
15:35:17.667447,0,2,1,23,0,-1,-1,-3
15:35:17.682435,-5,-2,-4,0,0,2,-1,-2
15:35:17.682435,-2,-2,2,3,6,-3,-1,-3
15:35:17.697427,-1,-2,-1,9,0,-1,0,3
15:35:17.697427,0,2,-1,2,-1,-1,-2,-2
15:35:17.712416,-2,-4,-4,-4,3,3,0,-6
15:35:17.719414,0,-3,-1,-2,-6,0,-1,-1
15:35:17.734405,2,0,2,2,28,-2,1,2
15:35:17.742399,0,-1,0,-35,-15,-11,-3,-3
15:35:17.757389,-5,-3,1,13,35,-1,-3,-5
15:35:17.757389,-1,1,2,0,16,1,1,1
15:35:17.772381,-1,1,3,17,22,4,2,2
15:35:17.779376,2,-1,-4,-57,-9,0,-3,-1
15:35:17.794366,-1,-3,5,17,10,0,-1,-3
15:35:17.802363,-1,-2,-2,-2,-3,-3,-2,0
15:35:17.816353,-3,0,-2,-1,2,4,2,-3
15:35:17.817352,2,2,4,7,34,0,2,0
15:35:17.832345,0,-1,1,4,4,-5,-2,1
15:35:17.839340,-2,-2,-1,2,32,1,-2,-5
15:35:17.862323,-2,-3,-3,2,12,-3,-1,-3
15:35:17.862323,2,0,0,9,7,4,-1,-1
15:35:17.877313,-3,-3,-1,-5,-3,-1,-4,-2
15:35:17.877313,3,2,2,4,7,1,0,1
15:35:17.892307,-1,0,-2,-4,-13,0,-3,0
15:35:17.899304,2,1,-1,0,-48,-1,-2,0
15:35:17.914293,-2,0,2,3,5,-4,-4,-1
15:35:17.922286,-4,0,0,-75,11,2,-2,0
15:35:17.937278,2,-2,2,8,8,8,1,-4
15:35:17.938276,-1,2,3,10,-2,5,2,2
15:35:17.952269,-3,-3,-2,4,-13,-8,-1,-2
15:35:17.959262,-1,-1,-3,-5,0,-2,-1,-2
15:35:17.974255,1,-1,1,0,-2,1,-1,0
15:35:17.982252,2,0,-3,-3,1,0,0,2
15:35:17.997239,1,0,-1,-5,2,-2,-1,0
15:35:17.998239,-4,-1,0,2,12,-1,0,-3
15:35:18.012229,6,0,1,2,4,4,3,1
15:35:18.019227,4,2,2,18,14,1,0,4
15:35:18.034219,-8,-5,-5,-1,31,-2,-4,-7
15:35:18.042214,-1,0,-2,1,-9,-1,0,-1
15:35:18.057202,-1,2,2,0,1,-2,-1,0
15:35:18.057202,-2,-2,0,-3,-1,1,2,2
15:35:18.072196,-1,-2,-1,-3,-2,1,0,-1
15:35:18.080188,2,-4,1,3,-33,-7,1,-3
15:35:18.095179,-2,-4,-2,0,9,-1,-4,-1
15:35:18.102177,-1,-1,0,-2,-7,-2,1,-1
15:35:18.117168,3,0,-1,4,28,-1,-1,-2
15:35:18.117168,1,0,-4,-4,-41,-6,-2,-1
15:35:18.132159,-3,-3,-1,15,15,-1,-1,-6
15:35:18.139151,-2,0,0,-3,-4,-2,2,2
15:35:18.155144,-2,-1,2,-2,-1,1,2,2
15:35:18.162137,-1,-1,-1,-3,1,0,1,-2
15:35:18.177130,-4,-1,-1,2,-9,-2,1,-2
15:35:18.177130,-5,-2,-2,8,-9,-3,1,-5
15:35:18.200113,-6,-1,-3,7,7,0,-1,-3
15:35:18.200113,1,2,-1,3,17,10,3,2
15:35:18.215107,2,1,3,6,-5,-2,0,5
15:35:18.222103,-2,-2,-3,0,3,2,-2,-4
15:35:18.237093,0,-4,-1,-6,-2,0,0,-1
15:35:18.238094,3,4,0,27,40,1,1,0
15:35:18.252084,-2,0,1,0,7,-7,-1,-1
15:35:18.260076,2,0,-3,0,0,-5,-2,-3
15:35:18.275067,-3,-4,-4,-4,-4,-3,-3,-3
15:35:18.282064,4,-3,3,7,-1,1,-1,3
15:35:18.297053,0,-1,0,-2,-2,-4,-3,1
15:35:18.297053,-3,-2,2,-3,-1,1,-1,-1
15:35:18.312044,0,1,0,0,-2,-1,-1,-2
15:35:18.319092,-5,-3,0,-1,-1,0,-1,-4
15:35:18.334033,-3,-1,-1,3,2,0,10,-3
15:35:18.342026,-8,-2,-3,-2,-1,-1,-1,-16
15:35:18.359014,7,4,1,7,12,6,5,15
15:35:18.359014,-1,-2,0,2,8,2,12,7
15:35:18.373005,-4,1,-1,-5,-5,-2,-6,-9
15:35:18.386997,1,1,-1,-1,2,-3,-1,-1
15:35:18.393994,-2,-4,-1,-1,1,-4,-5,-9
15:35:18.401987,5,1,1,5,7,3,0,5
15:35:18.416979,-1,-3,0,-3,-1,1,7,7
15:35:18.416979,-5,1,2,2,-1,-3,3,-2
15:35:18.431971,0,2,-3,-1,-1,0,1,6
15:35:18.438965,1,-4,-3,-1,1,-1,4,2
15:35:18.453956,-1,-2,-1,0,-3,-3,-4,-2
15:35:18.462951,-2,0,-1,0,-2,0,-1,-1
15:35:18.476941,-1,0,1,5,6,4,4,0
15:35:18.476941,1,0,1,-5,-3,-2,-1,1
15:35:18.498927,-1,2,2,1,-7,-1,-5,-1
15:35:18.499928,1,-1,-4,-7,-10,0,1,2
15:35:18.513917,-4,-3,0,-2,-13,-6,-1,-3
15:35:18.521914,1,0,0,0,0,0,0,1
15:35:18.536922,-3,-4,-3,0,0,0,-4,-1
15:35:18.536922,0,-1,1,-1,1,1,2,0
15:35:18.551895,-2,0,-2,-3,2,1,-2,-6
15:35:18.558893,-1,0,-1,-2,1,1,8,4
15:35:18.581890,0,0,0,0,-2,-1,-12,-2
15:35:18.581890,-2,0,-1,-4,-1,0,-5,-6
15:35:18.596868,3,2,0,-3,-16,1,2,7
15:35:18.603865,-6,2,1,5,10,2,-1,-5
15:35:18.618891,3,2,3,0,-3,-3,0,3
15:35:18.619853,-3,-3,0,1,-1,-2,0,-1
15:35:18.633846,5,1,2,3,2,4,7,10
15:35:18.641839,-1,0,-3,0,0,1,0,-3
15:35:18.656830,0,-2,0,-1,-6,-1,-5,-1
15:35:18.664824,-1,1,-2,-1,-2,0,5,2
15:35:18.678875,-4,-2,-5,-4,-8,-7,-4,-6
15:35:18.679816,-3,-4,-1,-4,-3,0,-2,0
15:35:18.700803,-2,-1,-3,-5,-1,-3,0,-3
15:35:18.701801,0,0,1,1,-15,-7,-3,-5
15:35:18.716793,-3,-4,-4,-2,3,0,-2,-2
15:35:18.723791,0,-2,-1,2,-1,1,0,0
15:35:18.738780,2,0,-2,-1,-5,-1,-2,1
15:35:18.739778,1,0,-1,-4,0,0,-3,0
15:35:18.754769,2,1,0,-1,0,1,-1,0
15:35:18.761765,-2,-4,-2,-4,-10,-4,-1,-4
15:35:18.776763,-3,0,0,-4,-1,1,5,-5
15:35:18.784751,0,2,1,1,2,-1,-6,1
15:35:18.798744,0,-2,0,-3,-3,-6,1,-4
15:35:18.799741,0,-1,0,0,-1,0,-6,-3
15:35:18.814739,-1,1,-1,0,1,-4,7,8
15:35:18.821728,-5,-3,-1,-2,-1,-2,-4,-7
15:35:18.836718,-1,-1,-2,-4,2,2,6,-3
15:35:18.844719,-2,1,-1,-2,-5,2,1,2
15:35:18.858705,5,3,3,5,8,3,7,15
15:35:18.859703,8,5,1,2,4,18,43,21
15:35:18.874695,-4,2,-2,-1,-6,-3,-9,-8
15:35:18.881690,-4,-3,1,-3,-3,-4,-5,-5
15:35:18.896683,-3,0,0,-1,-1,4,3,-7
15:35:18.904677,-3,1,1,-1,2,1,-7,0
15:35:18.918669,-3,0,-2,0,-4,-4,2,-2
15:35:18.919672,1,-1,0,2,2,-6,3,4
15:35:18.934658,1,0,-2,0,-1,-3,12,3
15:35:18.941653,-1,-1,0,-2,1,2,-6,-4
15:35:18.956644,2,2,0,3,2,2,6,-3
15:35:18.964640,-1,0,0,0,-1,0,-1,-2
15:35:18.979633,-1,1,-1,-1,-8,-5,-4,-3
15:35:18.979633,-5,-3,-2,2,-3,-4,-2,-5
15:35:18.994621,-2,2,1,-2,-3,-2,0,0
15:35:19.002618,-2,0,-3,-4,-5,-4,-3,-1
15:35:19.017607,1,1,-3,-7,-8,0,0,-3
15:35:19.024605,-3,-3,-2,0,6,1,-11,-5
15:35:19.039595,-2,-2,-3,-5,-3,-4,-2,1
15:35:19.040594,-2,0,-2,-2,-1,2,5,-2
15:35:19.054586,0,0,-2,1,-1,-3,-3,0
15:35:19.062578,-4,-2,-3,-3,-1,1,-1,-2
15:35:19.077570,2,0,-1,-4,-1,2,5,2
15:35:19.084567,1,-3,-2,-4,-1,1,11,13
15:35:19.099558,-4,-2,0,1,7,6,-1,-2
15:35:19.100555,0,-1,-2,-2,-2,-1,-1,-1
15:35:19.122542,0,3,1,0,1,0,-5,-3
15:35:19.122542,-1,1,1,-3,5,0,9,-5
15:35:19.137532,0,0,2,1,-9,-5,-3,3
15:35:19.144530,-1,-1,-2,1,1,-3,-2,1
15:35:19.159521,-1,-4,-4,-2,-3,-1,-3,-3
15:35:19.160518,-1,1,-1,1,5,3,2,9
15:35:19.174512,-4,0,-2,-2,-6,-2,-3,-2
15:35:19.182507,0,-3,-3,-2,-3,0,-3,0
15:35:19.197495,1,-2,1,-2,1,0,1,1
15:35:19.204490,-1,-2,0,-3,5,1,2,-1
15:35:19.219481,1,-3,-3,0,-8,-1,-3,0
15:35:19.220485,0,-1,-3,-2,5,1,-3,-3
15:35:19.234475,-2,0,3,-2,0,-1,-3,-3
15:35:19.249465,4,1,1,1,5,2,1,2
15:35:19.257458,0,-1,-2,-3,-1,-6,-6,-1
15:35:19.264456,-2,-1,-1,-2,-4,-4,1,-3
15:35:19.279444,0,3,1,3,1,-2,-1,2
15:35:19.280443,-2,-2,-2,-3,-2,-1,-7,-5
15:35:19.294437,2,-1,-1,2,-3,-3,-1,1
15:35:19.302432,-1,-3,0,2,5,0,-4,-3
15:35:19.317421,1,3,1,0,0,2,2,-1
15:35:19.324416,-3,-1,0,-4,-6,-1,0,-2
15:35:19.339407,-4,-5,1,0,-2,-5,-1,-3
15:35:19.340406,1,0,-3,-1,-6,-3,-3,2
15:35:19.354397,-1,0,-3,-4,-3,-3,-1,-3
15:35:19.362395,-3,-2,-1,2,-6,-1,-4,-1
15:35:19.377383,-3,-1,1,1,1,-2,-2,0
15:35:19.384382,-1,-5,0,-1,0,-3,0,-2
15:35:19.399370,1,2,2,0,-1,-2,1,2
15:35:19.400369,3,4,2,6,4,4,3,4
15:35:19.414363,0,-2,-1,-1,-1,0,3,-1
15:35:19.422359,-1,-4,-3,-2,-5,-7,-11,-5
15:35:19.437349,-1,1,2,-3,-1,1,5,3
15:35:19.452340,1,0,2,-1,0,0,2,1
15:35:19.459335,-2,1,-2,3,-3,-5,-8,-5
15:35:19.460334,4,1,1,-2,-8,-2,0,0
15:35:19.474325,-1,2,2,4,5,-3,-1,-2
15:35:19.489313,1,3,2,3,8,5,6,6
15:35:19.497308,1,0,-2,-2,-2,0,-2,-3
15:35:19.504307,1,1,1,2,-1,1,0,1
15:35:19.519297,-1,1,1,2,8,3,-3,-3
15:35:19.520294,-2,-1,-1,2,-2,-2,-1,0
15:35:19.534286,-1,4,-1,0,5,-1,0,0
15:35:19.542281,-5,-6,-3,-1,-5,-3,-6,-5
15:35:19.557272,-1,-3,-2,-2,-6,-2,0,-3
15:35:19.564269,-3,-4,0,0,2,-3,-3,-2
15:35:19.579261,-1,-3,-2,0,0,-7,-7,-5
15:35:19.587256,0,1,-3,1,2,2,2,-4
15:35:19.609240,-3,-1,3,2,-3,-2,-1,0
15:35:19.610241,-1,1,1,-3,-2,1,-4,-4
15:35:19.617237,1,-3,-6,-4,-1,-2,-2,-1
15:35:19.624232,-4,-6,-6,-8,-4,-5,-6,-3
15:35:19.639221,-4,-4,-1,0,-1,-1,-2,-1
15:35:19.647219,-4,3,-1,-4,-10,-4,-1,-1
15:35:19.662207,-2,-2,-4,3,3,-1,0,-1
15:35:19.663209,1,-1,-1,-3,-4,-1,1,-3
15:35:19.677200,-1,0,4,3,3,-5,-4,-1
15:35:19.685192,1,1,-5,0,4,5,1,0
15:35:19.700183,2,2,1,0,0,1,3,2
15:35:19.707182,-3,1,0,-1,0,1,0,-2
15:35:19.722170,3,4,4,5,2,-3,13,3
15:35:19.722170,2,-2,0,1,-2,1,-7,-2
15:35:19.737160,2,-3,-4,-6,-3,0,-1,-1
15:35:19.744157,-2,0,1,2,-5,-2,-1,-1
15:35:19.760146,1,-5,-4,-3,0,-2,-2,1
15:35:19.767142,-3,1,-1,-1,-6,-3,-2,-2
15:35:19.782135,-1,-6,-3,-1,7,2,0,-3
15:35:19.783132,-4,0,1,3,-3,-1,-3,-1
15:35:19.805121,-1,-1,0,1,2,0,-1,-3
15:35:19.805121,-1,-4,3,-5,1,-3,-4,-1
15:35:19.820108,3,3,0,3,-1,-1,5,3
15:35:19.827104,2,-1,-2,0,-8,-3,-1,-5
15:35:19.842095,-2,-4,0,1,-2,3,0,-1
15:35:19.842095,-1,-2,-1,-2,2,4,-1,-2
15:35:19.857088,1,3,1,0,-1,2,0,0
15:35:19.865084,1,-3,-2,0,-2,-1,-4,-3
15:35:19.880074,0,-1,-2,-8,-7,1,1,0
15:35:19.887070,-2,0,0,4,-2,1,-3,-1
15:35:19.902061,-1,0,-1,-2,1,-2,-2,-1
15:35:19.902061,0,0,2,1,-5,1,-1,-1
15:35:19.917051,-1,-1,-2,-4,-5,-5,-3,-3
15:35:19.924047,2,-4,-1,-2,-12,-1,0,0
15:35:19.940035,-3,-3,-3,-1,-1,-1,-1,-1
15:35:19.947032,-1,1,0,-2,0,-2,-3,2
15:35:19.962023,-1,-3,-1,-2,-1,1,-1,1
15:35:19.963021,-2,-1,-3,0,-2,1,-1,-1
15:35:19.977011,0,-3,-3,-4,0,1,-6,0
15:35:19.985008,-1,-2,-2,-1,-6,0,0,-4
15:35:19.999997,0,-2,1,0,1,-1,-2,-1
15:35:20.006993,-2,5,-1,0,3,0,2,3
15:35:20.021983,-2,-3,-2,-3,-9,-8,-3,-6
15:35:20.022986,-1,0,-1,-6,-6,0,0,1
15:35:20.036977,-4,-1,-3,-2,-14,-2,-2,-3
15:35:20.044969,0,1,2,4,4,3,-2,4
15:35:20.059960,-1,-2,0,1,2,-5,-1,-1
15:35:20.066955,2,-1,-2,1,-2,-4,2,-1
15:35:20.081946,-1,0,-4,0,1,1,-1,0
15:35:20.082947,1,-2,-2,-1,-3,-2,-1,0
15:35:20.096939,-2,0,3,1,-1,0,-1,0
15:35:20.104932,-1,-4,-1,-3,2,-4,0,-1
15:35:20.119925,-2,0,-2,-3,-4,-6,-5,-4
15:35:20.126920,-1,-2,1,-2,1,-1,-1,-1
15:35:20.141912,-2,1,3,1,0,-2,-1,3
15:35:20.142908,0,-1,0,-3,0,-2,0,-2
15:35:20.156902,-1,-3,-3,-1,-3,1,1,-1
15:35:20.164900,0,-1,0,2,1,-4,0,0
15:35:20.179888,-4,-2,-2,-1,-1,-4,-2,-2
15:35:20.186884,0,-1,-1,-3,-3,-3,1,-2
15:35:20.201875,-2,-2,-4,1,1,0,-1,-1
15:35:20.202871,2,1,0,2,3,4,1,2
15:35:20.226856,1,-2,-1,0,0,-2,1,-1
15:35:20.226856,1,0,1,2,-1,-1,2,0
15:35:20.239851,-3,-4,-1,-2,-3,-1,-3,-2
15:35:20.246847,0,0,-2,-2,-1,2,2,-2
15:35:20.261837,1,-2,-3,-1,-2,-4,-2,-2
15:35:20.262834,-2,-3,0,0,4,2,-1,-2
15:35:20.284822,0,0,-1,0,-4,-6,1,0
15:35:20.284822,-1,0,1,-5,-7,-3,-2,-3
15:35:20.299812,-1,-2,0,-1,1,-3,-6,-1
15:35:20.306809,-3,1,-1,-5,-4,-1,-1,-1
15:35:20.321797,-1,-2,-2,2,0,-4,-1,2
15:35:20.322797,0,-3,-1,-2,-1,-3,0,-3
15:35:20.336790,0,-3,1,0,-3,-4,0,2
15:35:20.344783,2,0,2,8,15,3,2,1
15:35:20.359777,0,-3,-1,-3,-5,-1,-2,-1
15:35:20.366772,-3,-1,-1,-1,4,-4,-2,-4
15:35:20.389756,-2,-3,-1,-4,4,1,0,0
15:35:20.389756,1,0,0,-3,-3,-2,-1,1
15:35:20.396753,1,0,3,-1,2,-1,0,1
15:35:20.404749,1,1,-1,-6,-4,-1,-1,-1
15:35:20.419740,2,-3,2,-2,0,1,1,4
15:35:20.426732,-3,0,-2,0,-5,-6,-1,-2
15:35:20.441724,0,-6,1,2,-1,1,-2,-3
15:35:20.449721,-2,1,2,4,5,3,1,2
15:35:20.456716,-3,-1,-4,-1,7,4,-2,1
15:35:20.464712,-3,0,-3,-2,-4,-8,-2,1
15:35:20.479700,-3,-1,-4,-4,0,2,-3,-3
15:35:20.486694,-2,-1,-1,4,7,1,0,1
15:35:20.501687,10,9,11,14,14,-3,5,12
15:35:20.508683,0,0,-4,-3,-6,-4,-1,2
15:35:20.524670,-3,-1,0,1,-1,-1,-3,-3
15:35:20.524670,-2,-1,2,-1,-4,-2,0,-3
15:35:20.539661,0,0,-5,0,-3,-3,-3,-3
15:35:20.546657,3,0,1,1,6,1,1,1
15:35:20.561648,0,2,-3,-3,-3,-1,0,-2
15:35:20.569643,0,0,-1,0,-1,-3,3,2
15:35:20.591630,0,2,-1,0,-1,-5,-3,-2
15:35:20.591630,1,-3,-3,-5,-9,-2,-2,0
15:35:20.599624,2,0,-1,4,3,-1,-2,-2
15:35:20.606620,0,0,1,-5,-3,-1,-3,-2
15:35:20.621612,2,0,0,0,-8,-6,1,2
15:35:20.636602,0,2,0,2,5,-3,-2,1
15:35:20.643598,2,0,1,-3,2,2,0,0
15:35:20.644598,-1,-1,-3,-1,-1,-1,-3,-3
15:35:20.659587,1,0,-1,0,0,0,1,-1
15:35:20.666584,-1,-2,0,1,-2,-1,-1,-3
15:35:20.681573,0,-1,3,0,-3,-2,-1,-1
15:35:20.689572,-4,-2,-2,-3,-7,-4,0,1
15:35:20.704563,0,1,-1,0,-3,2,1,-1
15:35:20.705562,-1,1,0,4,6,-1,1,1
15:35:20.719553,-5,-3,-1,-2,-3,-2,0,-4
15:35:20.727549,-1,-1,0,0,1,2,3,0
15:35:20.742540,-1,0,1,-1,-5,0,-2,-3
15:35:20.749535,1,-1,-1,0,1,1,-2,2
15:35:20.764526,2,1,-1,1,8,-1,3,-1
15:35:20.765525,1,-3,-4,-4,-12,-2,-1,-1
15:35:20.779517,0,-2,0,3,11,4,-1,1
15:35:20.786512,-1,1,-4,-2,-4,-1,-2,-2
15:35:20.802501,-1,-2,-1,-4,-3,-1,-1,-2
15:35:20.809498,0,-1,-1,-1,-1,-4,-3,-1
15:35:20.832480,0,-1,0,-5,-5,-3,-2,-2
15:35:20.832480,-2,-2,-1,-1,-2,0,-5,-1
15:35:20.839480,-2,-1,-1,-6,-2,-2,-3,-1
15:35:20.847474,3,1,3,4,1,4,2,4
15:35:20.862463,-2,0,0,-3,3,-1,-4,-1
15:35:20.869460,0,2,4,3,6,1,1,1
15:35:20.884451,-1,-3,-1,-1,-6,-4,1,1
15:35:20.885448,0,-5,-1,-1,-2,2,0,0
15:35:20.899442,1,0,0,2,0,-5,-4,2
15:35:20.906439,1,-3,-4,-4,-6,-2,-2,-2
15:35:20.922425,1,-1,-1,-1,-3,2,-2,3
15:35:20.929424,-3,-5,-3,-1,2,1,-1,-4
15:35:20.944414,-3,0,-4,-8,-5,-2,-2,-4
15:35:20.945410,1,-2,-4,2,-3,-8,-3,-2
15:35:20.959405,1,-4,1,-3,-3,-4,-2,-3
15:35:20.967399,-2,0,-5,-4,-3,-1,0,-1
15:35:20.982390,0,-3,-1,0,2,2,1,-1
15:35:20.989386,-2,0,-1,-1,-1,0,-1,0
15:35:21.004377,1,1,0,-2,-1,-2,2,3
15:35:21.005373,0,1,-1,1,6,-1,-1,-1
15:35:21.019365,-2,4,1,2,9,6,1,3
15:35:21.027360,0,-1,-2,-2,-2,-2,-3,0
15:35:21.042354,0,-2,0,-1,3,-2,-3,-2
15:35:21.049349,0,0,-1,-4,-3,-3,-1,-3
15:35:21.064337,1,-1,1,-4,-13,-2,-1,2
15:35:21.065339,-2,-2,-2,4,3,0,-2,-4
15:35:21.079330,-1,-2,1,0,4,3,-1,-1
15:35:21.087323,0,-1,1,-4,-5,0,-2,1
15:35:21.102316,-2,3,2,-1,1,-1,1,0
15:35:21.109312,1,2,0,-2,-2,3,0,3
15:35:21.124302,-1,1,-1,-2,2,2,1,-3
15:35:21.125302,-1,-2,-2,0,1,-4,-3,2
15:35:21.139293,3,2,1,-1,5,3,3,-1
15:35:21.147288,-2,-1,-3,-1,1,-1,0,-2
15:35:21.162279,5,3,3,5,10,2,3,6
15:35:21.169275,-2,-2,-1,0,0,0,-1,-2
15:35:21.184265,-3,-1,-2,0,-8,-5,-2,-1
15:35:21.185265,1,-2,-1,1,3,3,0,2
15:35:21.199255,-3,-1,-2,0,1,-3,0,-1
15:35:21.207248,-3,-1,-1,2,2,1,-2,1
15:35:21.222242,0,1,-1,1,3,-2,-3,-7
15:35:21.229234,1,-1,3,1,-4,-2,1,0
15:35:21.244228,-2,-2,-1,-2,-2,1,-1,-2
15:35:21.245224,-3,0,1,0,1,5,2,-1
15:35:21.259218,4,8,8,5,2,-3,5,3
15:35:21.267214,0,-2,0,2,-3,-3,-1,-4
15:35:21.282205,1,1,-6,0,6,2,-1,-4
15:35:21.289199,0,1,5,0,3,2,3,2
15:35:21.304191,2,3,1,4,6,0,4,5
15:35:21.305190,-1,0,-1,-3,-3,-2,-2,0
15:35:21.327174,-3,-1,1,-2,2,-2,-2,-2
15:35:21.328174,2,-2,0,-1,-1,0,-3,-1
15:35:21.342168,-4,0,-1,0,1,-3,0,-2
15:35:21.357158,0,2,0,0,-1,-1,1,-1
15:35:21.364153,0,-1,-2,-1,0,-2,-2,-2
15:35:21.365153,0,-1,2,-1,-7,-4,-4,-1
15:35:21.380145,-1,0,-1,0,3,0,0,-3
15:35:21.387140,-4,-3,-5,-3,4,-1,-4,-2
15:35:21.402130,0,-4,-1,-1,4,1,1,1
15:35:21.409123,-1,0,-1,-1,0,-3,0,0
15:35:21.424116,0,-2,-2,-1,-1,-3,-1,-1
15:35:21.425116,3,-3,1,-1,0,0,1,-1
15:35:21.447102,-1,-4,-1,1,0,2,-1,-2
15:35:21.448102,-3,-2,1,0,0,-3,-1,1
15:35:21.469088,0,-1,2,-3,-6,-2,2,0
15:35:21.470085,1,-3,2,-2,1,0,-1,1
15:35:21.485079,0,0,2,5,1,-3,-1,-1
15:35:21.492074,-1,-2,-5,-1,-1,-4,0,0
15:35:21.515060,1,0,2,-4,-6,-1,2,3
15:35:21.515060,-2,0,-2,1,-3,-4,-1,0
15:35:21.522056,-1,0,-2,0,1,0,-3,-5
15:35:21.530048,-1,-1,-4,-2,-3,-1,-3,-1
15:35:21.552037,-4,1,-2,-3,-3,-3,-2,-1
15:35:21.553033,-3,-1,1,-3,0,0,-1,-1
15:35:21.567028,-2,-3,-1,-2,-2,-2,0,-3
15:35:21.568025,2,-1,2,0,1,2,2,2
15:35:21.582016,-5,-4,-3,-5,-5,-3,-2,-7
15:35:21.589015,-3,-1,0,-1,0,0,-2,-3
15:35:21.610999,-3,0,-3,-2,2,2,2,0
15:35:21.612000,3,-2,0,-3,-4,-5,0,-1
15:35:21.626988,1,-1,-5,2,1,2,-1,2
15:35:21.627988,-1,2,-2,-1,5,-1,4,-3
15:35:21.641982,-3,-1,-1,-4,1,0,-2,-3
15:35:21.649973,3,0,-1,1,0,-1,0,2
15:35:21.664965,-2,-2,-1,0,1,-5,-1,-1
15:35:21.671960,-1,1,0,3,3,-3,0,-1
15:35:21.686950,-3,-3,-2,0,-7,1,-3,-1
15:35:21.687950,-2,-4,-3,1,-1,-4,-2,-2
15:35:21.701944,-3,-2,0,-2,1,2,2,1
15:35:21.709937,1,0,-3,-1,-4,0,-2,2
15:35:21.730926,-1,1,-2,0,8,4,1,0
15:35:21.731926,2,0,-1,1,-2,-2,0,2
15:35:21.746916,-4,-3,-4,0,3,0,1,3
15:35:21.747916,1,-2,-5,-2,5,0,0,-2
15:35:21.761904,1,-2,-1,-3,-7,-3,-4,-5
15:35:21.769899,-1,1,-1,1,2,0,0,0
15:35:21.784892,-2,-3,-4,0,-5,-1,0,0
15:35:21.791885,-1,-4,-1,-1,-4,-1,-4,-2
15:35:21.806876,1,-1,-1,-1,1,-2,-4,1
15:35:21.807876,-4,-1,0,0,0,4,0,-3
15:35:21.821867,-3,0,-1,-3,-3,0,-1,4
15:35:21.829864,2,-3,0,3,1,-3,-1,-3
15:35:21.851848,2,-3,-2,-5,-4,2,-1,-3
15:35:21.852848,-1,0,1,-1,4,-1,3,-3
15:35:21.866839,-2,-3,-2,3,3,-2,-3,0
15:35:21.867838,-3,-1,-1,-5,-5,-2,-1,-1
15:35:21.881830,-3,-2,-2,1,8,2,-1,-5
15:35:21.889825,2,-2,0,0,-1,-3,0,0
15:35:21.904816,-4,-2,-4,-2,-1,1,-5,-2
15:35:21.911813,-4,-1,-2,-4,-4,2,-1,-5
15:35:21.926803,0,-1,-3,0,0,0,-1,-1
15:35:21.927802,-6,-1,-2,0,3,0,3,-4
15:35:21.941793,-3,-4,-5,-2,-6,0,-3,-4
15:35:21.949788,1,-1,0,-1,8,0,0,0
15:35:21.964779,1,1,-3,-2,1,-2,-2,0
15:35:21.971774,0,1,0,-1,1,1,0,1
15:35:21.986764,-1,0,1,-3,4,-2,3,-2
15:35:21.987764,-5,0,-1,-1,0,-4,-6,0
15:35:22.001755,-2,0,1,-1,-2,-3,0,0
15:35:22.009750,3,1,2,2,0,3,0,-2
15:35:22.024742,-1,-3,-2,-1,0,1,1,-1
15:35:22.031739,-2,-1,-2,-1,-10,-1,-3,-1
15:35:22.046727,3,4,1,3,3,-1,-1,1
15:35:22.047728,-2,-4,-3,0,-2,2,0,-1
15:35:22.061720,1,-1,2,0,0,1,3,-1
15:35:22.069713,-3,-3,0,-3,-1,-3,-5,-2
15:35:22.084704,-3,1,0,0,-1,-3,-4,-1
15:35:22.091702,-1,1,0,-1,-4,-1,-2,-2
15:35:22.106693,3,0,0,-1,2,-2,-1,-1
15:35:22.107692,-1,2,3,-1,-5,-6,-1,0
15:35:22.121683,0,2,-1,1,5,5,1,1
15:35:22.129676,-1,-4,-3,-3,-6,-1,-4,-1
