timestamp,emg1,emg2,emg3,emg4,emg5,emg6,emg7,emg8
16:29:15.416914,2,-1,-1,-4,-4,-8,-10,-2
16:29:15.417914,5,6,4,3,7,17,26,17
16:29:15.439900,0,-1,1,1,4,4,-6,0
16:29:15.439900,-7,-1,-4,-2,4,0,-3,-4
16:29:15.453892,-2,-1,0,-2,-1,-3,-4,-4
16:29:15.461887,1,2,-1,1,4,-1,-17,12
16:29:15.476877,0,0,1,0,-1,1,9,-2
16:29:15.476877,8,2,2,0,1,2,3,6
16:29:15.498862,-10,-3,1,-1,-3,-2,-9,-13
16:29:15.499863,-2,0,0,-4,-2,-3,-1,1
16:29:15.513909,-4,-3,-3,-5,0,-1,-1,-7
16:29:15.521850,0,1,1,1,-1,-3,-6,-8
16:29:15.536845,0,-4,-2,1,-2,0,5,10
16:29:15.536845,-4,-4,-1,-1,1,0,-5,1
16:29:15.551833,1,1,-4,-2,-3,-22,-46,-5
16:29:15.558829,0,0,1,3,3,7,1,-7
16:29:15.573823,12,0,0,0,-2,-3,-3,19
16:29:15.588812,1,0,1,-3,-2,3,8,0
16:29:15.596802,-2,-4,0,2,0,-10,-9,-4
16:29:15.596802,-3,-1,-1,-1,1,2,-6,-5
16:29:15.611795,0,-2,-1,-1,0,-5,6,-4
16:29:15.618792,3,1,0,2,2,1,8,12
16:29:15.633782,-3,0,-2,-5,-2,-5,-3,-3
16:29:15.641776,-1,-1,-1,0,1,-13,-35,0
16:29:15.656766,-6,-2,-4,-2,-1,-5,0,-6
16:29:15.656766,5,-5,-4,-5,-7,-5,-8,3
16:29:15.671757,-6,1,-1,0,1,0,-1,-3
16:29:15.678755,-2,-2,-1,-3,-5,-5,-7,-6
16:29:15.693745,2,0,-1,2,3,-1,-3,-4
16:29:15.701739,-4,-3,-2,-2,1,-1,6,-1
16:29:15.716730,-3,1,1,-1,-1,-1,1,6
16:29:15.716730,-2,-2,-2,0,1,5,4,2
16:29:15.731720,-2,-2,0,-3,0,1,-2,6
16:29:15.738718,1,2,-2,0,0,6,7,0
16:29:15.753709,-5,-1,-1,-3,1,13,21,-19
16:29:15.761702,-2,-4,-1,-1,0,-4,4,1
16:29:15.776691,-2,-2,2,1,3,1,1,-6
16:29:15.784695,2,-1,-1,1,-3,2,-9,6
16:29:15.791683,1,-1,-1,-1,1,-2,-1,-3
16:29:15.798681,-2,-4,0,-2,1,2,9,10
16:29:15.813672,-3,-2,-1,0,3,1,1,-1
16:29:15.821664,-3,-4,-3,-16,-11,-2,19,-5
16:29:15.836655,-1,0,0,6,2,-3,2,-9
16:29:15.843655,-4,2,0,2,3,9,9,9
16:29:15.851646,-8,-4,-2,0,0,-5,-11,1
16:29:15.858653,-4,-3,-2,1,-4,-10,-6,-9
16:29:15.873646,-3,-2,1,-1,-4,-6,-7,-6
16:29:15.881627,-2,-2,1,0,1,1,-3,-3
16:29:15.896618,-5,0,-4,-1,-4,-10,-37,-9
16:29:15.904613,-2,-3,-2,-6,-3,3,4,2
16:29:15.926601,-6,-4,-3,-4,-3,-1,-4,-8
16:29:15.926601,-9,-1,-3,-3,1,6,1,-5
16:29:15.934595,0,-3,-1,-3,0,-8,-2,-2
16:29:15.941591,-2,-2,-1,-2,-1,1,-7,-1
16:29:15.956581,-3,1,-2,-6,-6,-2,-8,-7
16:29:15.964576,0,1,0,-1,3,1,-28,-4
16:29:15.979572,-1,2,-2,-2,2,5,12,5
16:29:15.980567,-3,-4,0,-4,0,-1,-3,-4
16:29:15.994557,4,1,0,1,0,1,22,28
16:29:16.001553,-3,-3,3,-3,0,-2,-9,-8
16:29:16.016544,9,0,-4,0,0,4,10,-1
16:29:16.024541,-4,0,-1,2,-4,-7,-6,1
16:29:16.039530,8,2,0,-2,-3,1,2,10
16:29:16.039530,2,-4,-3,2,-2,-4,12,0
16:29:16.054522,-3,-2,2,-2,1,0,-3,-3
16:29:16.061544,-3,0,0,1,1,1,-6,-5
16:29:16.076536,-2,-3,-3,-6,-7,-4,-23,0
16:29:16.084509,-2,-2,2,0,-3,-2,7,-1
16:29:16.099502,-4,-2,-3,-4,-2,2,2,-2
16:29:16.099502,-5,-2,1,1,2,0,2,-4
16:29:16.114486,-1,-4,-2,-3,1,0,0,1
16:29:16.121480,-2,-2,-1,0,1,-3,-2,4
16:29:16.136474,-4,-1,-2,-1,-2,-2,-1,-1
16:29:16.144477,-3,-2,2,-2,-2,1,2,-2
16:29:16.159457,0,3,1,-3,-1,-1,0,-2
16:29:16.159457,1,-2,0,-1,1,-2,0,-5
16:29:16.174448,-2,-1,-1,1,-1,1,-4,0
16:29:16.181446,-6,2,0,2,0,0,-3,-3
16:29:16.196435,-8,-3,2,-1,-2,-1,0,4
16:29:16.204428,2,1,0,2,-2,-3,-1,2
16:29:16.219421,8,3,-2,3,-1,0,-4,9
16:29:16.219421,-7,-2,-1,2,-1,-2,-15,-7
16:29:16.234411,1,-1,-3,-2,-6,-4,14,2
16:29:16.241409,0,-2,2,1,4,8,13,-6
16:29:16.256400,0,2,2,-2,-1,1,0,1
16:29:16.264394,-10,1,-1,-3,-1,-3,0,-7
16:29:16.279382,0,1,2,1,-2,3,4,7
16:29:16.279382,1,-1,-2,-2,2,-1,-3,-8
16:29:16.294374,-1,5,2,1,-3,4,12,6
16:29:16.302382,-1,1,2,2,-1,-4,-7,-4
16:29:16.317360,1,-1,0,-4,-3,0,-13,4
16:29:16.324356,1,1,0,-2,0,6,4,5
16:29:16.339347,0,-1,-1,2,3,-1,1,1
16:29:16.339347,-6,-5,-5,-4,0,-9,-17,-7
16:29:16.354337,-4,-4,-2,1,-3,-20,-42,0
16:29:16.361335,1,-1,-1,-5,1,19,24,13
16:29:16.376325,0,3,1,-1,-2,-1,12,9
16:29:16.391320,-8,2,1,-3,0,-1,3,-13
16:29:16.399310,1,0,0,-2,-2,-3,-7,-6
16:29:16.399310,1,1,-2,0,-3,-9,-19,-9
16:29:16.421295,-4,2,1,-3,-2,-9,1,-7
16:29:16.422296,1,-2,1,-3,-2,5,1,-4
16:29:16.436289,-5,0,3,4,0,4,2,-6
16:29:16.444282,-2,-4,-2,-1,-2,4,41,-6
16:29:16.459273,3,2,2,-1,1,8,5,13
16:29:16.459273,-3,-2,-1,-3,-1,0,1,-5
16:29:16.474264,-4,-2,-1,-1,-1,-2,2,-4
16:29:16.482269,-3,-2,0,0,-1,0,-2,-3
16:29:16.497249,1,1,0,-1,0,-2,0,3
16:29:16.504244,-1,0,-1,0,-3,-2,-4,-6
16:29:16.519236,2,0,2,0,-3,-3,0,0
16:29:16.519236,-1,1,-4,0,0,-1,-1,-1
16:29:16.534227,-1,0,1,-1,-1,-3,-1,-2
16:29:16.541226,2,-2,1,3,0,-3,-9,7
16:29:16.556219,-1,1,1,0,0,-5,-8,-6
16:29:16.564208,-5,-2,1,-1,3,7,-10,-8
16:29:16.580199,5,0,-2,-2,0,-1,0,11
16:29:16.580199,3,0,0,-3,1,-1,1,2
16:29:16.594188,-4,-2,0,-2,2,9,22,-3
16:29:16.609179,3,0,-2,1,1,1,0,-1
16:29:16.624171,-1,-1,-1,2,-1,1,12,6
16:29:16.624171,-5,0,-3,-3,-2,3,4,-8
16:29:16.647157,-6,-2,3,-2,-3,-4,9,4
16:29:16.647157,-2,2,0,-1,-2,0,-5,-5
16:29:16.654153,-3,-2,0,1,-1,-1,1,-4
16:29:16.661150,1,0,-2,-3,-4,-7,32,13
16:29:16.677138,-8,-3,0,3,0,-3,-16,-3
16:29:16.684134,1,0,0,-3,1,12,42,-7
16:29:16.699126,-2,1,-2,-1,0,-9,-7,-2
16:29:16.700131,-1,1,-1,1,0,2,3,6
16:29:16.714115,-4,-1,-3,-2,-1,-3,2,-6
16:29:16.721113,1,2,-5,-6,-4,4,0,4
16:29:16.737102,4,2,0,1,0,-2,21,16
16:29:16.744096,2,0,0,-1,1,3,2,-1
16:29:16.759087,-1,-2,-1,0,0,5,16,15
16:29:16.767082,-3,-4,2,-1,-5,-11,-12,-7
16:29:16.774078,1,-3,0,-2,-2,1,-10,-4
16:29:16.782074,-5,-2,-4,-4,-7,5,13,-2
16:29:16.797065,-2,-2,-2,-1,1,1,6,-4
16:29:16.804059,-1,0,-2,-3,-2,-1,3,-3
16:29:16.819050,-4,-1,-4,-4,-5,-6,5,-1
16:29:16.827046,-9,1,-1,0,0,3,-7,-3
16:29:16.842036,3,-2,-2,-2,-5,-5,-5,-5
16:29:16.849032,-4,-1,-1,0,1,-1,2,0
16:29:16.864022,4,1,0,-2,-3,4,42,24
16:29:16.865022,5,0,0,-4,-1,0,-5,6
16:29:16.879014,-7,-4,-3,-5,-2,5,2,-8
16:29:16.887008,4,3,-1,5,7,2,-4,4
16:29:16.901002,-1,-2,0,0,-3,-4,-4,-5
16:29:16.902000,1,-2,-1,3,-3,0,8,5
16:29:16.916991,-4,0,-1,2,-1,2,-5,0
16:29:16.924033,-5,1,-1,-3,1,-1,5,-5
16:29:16.938976,-3,-3,-1,-3,-4,-3,1,-5
16:29:16.946979,0,-3,1,0,2,-3,-2,5
16:29:16.960966,3,1,-1,-1,-2,-2,-3,-4
16:29:16.961964,-6,-3,0,-3,-2,-2,-29,-5
16:29:16.976954,-3,-5,-1,-1,-2,8,12,-5
16:29:16.983952,0,0,-1,-1,0,-7,-2,-8
16:29:16.998940,3,0,-1,0,-1,1,-5,-3
16:29:17.006936,-2,-2,-1,-1,-2,-3,-2,-3
16:29:17.020929,-1,-1,0,-2,-4,-4,6,-5
16:29:17.021926,2,-1,-2,1,0,-6,-11,1
16:29:17.036917,-6,-4,4,-1,0,1,-5,-5
16:29:17.043924,-3,2,-2,-2,-5,-4,1,-4
16:29:17.058908,1,-4,-2,-1,-5,6,20,-8
16:29:17.066899,0,1,1,3,1,-3,-10,5
16:29:17.081892,-2,-2,-2,-1,-1,-1,-6,-8
16:29:17.081892,1,-2,0,-1,1,2,4,-5
16:29:17.096880,1,2,-1,-1,-4,-6,-6,-6
16:29:17.103890,-2,-3,-2,0,1,-3,-12,3
16:29:17.118891,2,-4,0,-2,-1,-5,9,-5
16:29:17.126862,0,-1,1,1,1,-8,-5,-6
16:29:17.141854,-1,-4,2,-1,-2,-5,-2,-5
16:29:17.141854,8,1,2,0,2,14,-3,9
16:29:17.156844,0,-1,1,0,-2,-2,8,5
16:29:17.163841,-1,1,0,-2,2,-5,-13,-9
16:29:17.178829,-3,-3,-1,-1,1,-5,-10,-9
16:29:17.186825,-1,2,1,-1,-1,0,4,-2
16:29:17.208816,-7,-3,-2,-1,1,-2,0,2
16:29:17.209811,-5,-1,-2,-2,0,-3,6,-10
16:29:17.216806,-6,-3,-3,-3,-1,1,-10,-3
16:29:17.223804,-1,0,1,0,0,-1,5,-1
16:29:17.238795,1,-2,0,-4,-3,0,3,0
16:29:17.246792,-1,3,1,0,2,0,1,6
16:29:17.261779,-1,-1,-1,-3,0,-7,-27,-3
16:29:17.261779,1,-3,-1,-3,-1,0,3,-8
16:29:17.276770,4,2,0,2,8,20,17,24
16:29:17.284764,0,-2,0,6,6,2,-6,-4
16:29:17.299765,4,1,1,-15,-16,2,2,4
16:29:17.306750,1,1,1,2,6,1,0,2
16:29:17.321742,7,2,2,4,0,-4,6,10
16:29:17.321742,-3,-2,-3,0,-1,-3,-11,-2
16:29:17.336732,-3,-2,0,0,-3,-4,3,-5
16:29:17.343730,0,-3,-4,-2,-2,-1,1,-1
16:29:17.358721,3,1,-1,4,3,-8,-18,10
16:29:17.366713,-5,-5,-3,-2,-2,-4,-1,-6
16:29:17.381705,0,2,1,2,6,20,16,-1
16:29:17.382705,-2,0,-2,-4,-1,-5,-10,-10
16:29:17.396695,5,1,0,-1,1,3,2,5
16:29:17.403695,0,-4,-1,-2,-3,-1,-3,-2
16:29:17.419685,-1,0,1,2,2,-2,-9,-3
16:29:17.434672,6,3,-1,0,-5,-6,-26,11
16:29:17.441668,-1,1,0,-1,0,3,4,-3
16:29:17.441668,0,-2,-1,-1,2,4,-5,-4
16:29:17.456657,5,1,2,0,1,3,13,15
16:29:17.464662,-1,1,-3,0,1,5,1,-5
16:29:17.479643,-10,-5,-2,1,-2,4,6,0
16:29:17.486639,3,0,0,0,1,-3,-3,-3
16:29:17.501631,1,-4,0,-2,-1,-5,-1,-1
16:29:17.501631,-10,2,2,0,2,9,-3,4
16:29:17.516621,1,1,-1,-3,-1,2,4,-1
16:29:17.524620,-2,-1,-1,3,0,1,-22,-15
16:29:17.539609,-2,-2,-2,-2,0,-12,-33,5
16:29:17.546602,-2,-2,-1,0,-4,3,4,-4
16:29:17.561594,-1,1,-1,-3,3,5,9,-1
16:29:17.561594,4,4,1,0,6,9,12,13
16:29:17.576584,2,0,0,-2,-1,-4,2,0
16:29:17.584581,-4,-1,-4,-3,-1,4,-4,-7
16:29:17.599569,-12,-4,0,0,-1,-3,-3,-7
16:29:17.606566,-8,-3,-3,-1,-2,1,-6,-8
16:29:17.621557,3,0,0,-2,2,-4,-6,6
16:29:17.622557,-5,-3,2,0,7,1,-5,-6
16:29:17.636546,1,-3,0,-18,-10,9,11,1
16:29:17.644543,-1,-2,-1,3,-2,-7,-20,-1
16:29:17.659540,5,1,-3,3,3,-11,-19,10
16:29:17.666529,-2,-1,-1,-1,-1,-4,2,-3
16:29:17.681521,-8,-2,1,-2,-3,-1,3,-3
16:29:17.689515,17,3,1,-1,-5,-2,3,11
16:29:17.696511,-4,0,2,0,-2,-4,-7,-9
16:29:17.704505,-2,1,-1,-2,3,-3,0,-1
16:29:17.719497,-2,1,-1,-1,0,1,5,-5
16:29:17.726532,0,1,-4,-3,-1,0,-1,1
16:29:17.741527,-2,0,-3,0,-4,-2,-2,-5
16:29:17.749478,-5,-4,-3,-3,-4,-21,-20,0
16:29:17.756526,0,-1,-2,1,1,1,0,-7
16:29:17.764470,1,-1,-1,-3,5,9,8,0
16:29:17.779459,10,2,2,0,8,15,12,1
16:29:17.786458,-5,-3,1,1,-2,-5,-8,-6
16:29:17.801448,-3,-2,-3,-1,-3,-1,-5,-8
16:29:17.809442,-3,0,-3,-3,-2,-2,-2,1
16:29:17.824431,1,0,1,-1,-2,-5,-6,-3
16:29:17.824431,-8,-2,-1,-2,-3,-1,-4,-7
16:29:17.839423,-2,0,-2,0,-1,-1,-1,-5
16:29:17.846419,-2,0,-3,-4,1,-20,-49,-7
16:29:17.861411,-4,0,-1,-1,0,0,22,-1
16:29:17.869405,-3,-2,-5,-3,-3,-1,-5,0
16:29:17.884396,-3,0,0,-3,1,1,-3,-2
16:29:17.884396,-14,-4,-2,-9,-2,-2,-9,-14
16:29:17.899386,-1,-1,-2,-1,-1,2,7,5
16:29:17.906386,1,-1,-3,-3,-1,-7,-3,1
16:29:17.921383,1,4,2,2,4,10,11,2
16:29:17.929368,-1,1,0,1,0,-1,0,5
16:29:17.944359,-7,0,2,2,3,0,-8,-9
16:29:17.944359,-4,0,-2,-1,0,-3,3,1
16:29:17.959349,-3,1,-1,0,-1,2,0,-3
16:29:17.966347,-5,-2,-3,-1,2,6,-16,-6
16:29:17.981337,4,-1,-1,-1,-3,-4,-12,8
16:29:17.989331,-3,-4,0,0,1,1,0,-5
16:29:18.004322,-5,-1,3,0,-2,-1,1,-3
16:29:18.004322,-3,-1,-1,2,1,0,-3,-14
16:29:18.019312,-1,1,-1,-1,-3,-7,10,-2
16:29:18.026311,14,4,6,0,1,16,35,41
16:29:18.056291,-1,-1,-2,0,0,-2,-4,-4
16:29:18.057288,1,-2,-2,1,0,1,2,-3
16:29:18.064285,2,-5,0,-3,2,-4,-9,-14
16:29:18.064285,1,1,5,-2,-3,-7,-1,8
16:29:18.079275,-2,2,0,1,0,-14,-31,-5
16:29:18.086273,0,-4,-1,-1,0,2,3,1
16:29:18.109256,2,-5,-3,-4,-2,5,4,1
16:29:18.109256,6,0,-4,-1,0,8,20,31
16:29:18.124248,2,-3,-1,0,3,-1,-2,1
16:29:18.124248,9,-2,1,0,2,1,-1,-10
16:29:18.139239,2,2,-1,1,-4,-3,-2,0
16:29:18.146235,-4,-1,0,-2,1,5,-16,-3
16:29:18.161227,3,0,-2,1,-1,6,17,9
16:29:18.169219,-5,-3,0,1,-5,-3,-7,-6
16:29:18.184211,-3,-2,0,-1,1,-5,-21,3
16:29:18.184211,-2,-1,-1,-1,0,2,6,1
16:29:18.199202,-1,-1,0,-1,-2,-2,-8,-9
16:29:18.206199,-2,0,-3,1,1,4,4,-1
16:29:18.222187,-7,-4,-1,-2,-2,-4,-9,-5
16:29:18.229183,3,4,-3,-1,3,6,9,0
16:29:18.244176,-4,-2,-2,-2,-2,-3,0,-6
16:29:18.245176,-3,-2,3,2,0,4,-17,-3
16:29:18.259165,-1,1,0,-3,0,9,17,-2
16:29:18.267163,0,-1,1,-3,-1,1,-5,2
16:29:18.282153,-2,1,0,3,-2,0,5,3
16:29:18.289147,-6,-4,-2,-4,-3,-8,-13,-6
16:29:18.304139,-2,-3,0,0,-4,0,-5,-7
16:29:18.305136,-2,0,-1,-4,-1,-5,-6,-7
16:29:18.319128,0,1,0,-2,-3,1,-16,-10
16:29:18.327122,0,0,-1,2,-2,1,4,12
16:29:18.342116,4,-2,0,-1,-5,-5,-2,-9
16:29:18.349109,0,-2,-3,-4,0,1,9,7
16:29:18.364101,-4,0,-3,-4,-1,-1,0,-3
16:29:18.365102,-6,-3,0,-3,0,-6,-28,-4
16:29:18.379091,1,-1,-1,-3,2,1,4,0
16:29:18.387089,-8,2,-3,0,-4,-7,-8,-12
16:29:18.402079,2,2,1,1,0,1,2,7
16:29:18.409072,3,-4,-2,0,4,2,-1,0
16:29:18.424062,-1,1,-1,-2,-2,-3,-6,-5
16:29:18.425065,-3,0,0,4,1,3,4,-6
16:29:18.440053,5,1,-1,-1,-1,-7,-11,11
16:29:18.454047,-3,-3,-5,0,-3,-17,-13,-9
16:29:18.462042,1,0,1,-2,-4,-4,-3,-6
16:29:18.469038,2,0,-1,-2,0,2,6,6
16:29:18.485028,-4,-2,0,1,-2,-5,-13,-18
16:29:18.485028,-1,-3,0,-1,1,-4,0,8
16:29:18.500016,-2,-3,-5,-1,-2,-1,-3,-3
16:29:18.507015,2,5,2,2,0,-3,13,0
16:29:18.522002,1,-3,-2,-1,2,0,-31,12
16:29:18.529001,-2,-1,-1,3,1,7,4,-6
16:29:18.544989,-1,3,0,-1,-5,-6,-2,-6
16:29:18.544989,-4,-2,1,2,0,-5,-8,-8
16:29:18.559979,-2,-4,-4,-3,-6,3,3,5
16:29:18.566978,8,1,1,1,2,-1,-3,1
16:29:18.581969,-2,-2,-2,2,-1,1,0,-1
16:29:18.589960,-1,-3,-2,-2,-1,1,1,0
16:29:18.603952,-2,-1,2,-2,0,1,6,7
16:29:18.604952,3,-2,-4,-5,3,-1,3,5
16:29:18.619942,-4,-2,-1,-3,-3,-3,-2,-5
16:29:18.634933,-1,1,-1,2,-1,0,-5,3
16:29:18.641932,-1,-2,-4,-1,-3,-1,-5,-7
16:29:18.649924,8,0,-3,-1,-2,9,6,0
16:29:18.664918,1,-2,2,1,-1,2,3,-2
16:29:18.671913,-1,-1,-3,0,1,-1,2,-5
16:29:18.679905,0,1,-1,-1,4,0,5,-2
16:29:18.686904,-4,-3,-2,-17,-21,-5,-3,-4
16:29:18.701892,1,1,-3,5,8,2,3,-3
16:29:18.709887,-4,-2,-3,-4,-7,1,-1,-3
16:29:18.724877,-6,0,-3,0,-8,-1,-2,0
16:29:18.731876,-6,-3,-2,-3,6,0,2,-3
16:29:18.746867,-2,-2,0,-11,-62,-9,-5,1
16:29:18.747865,-10,-4,-1,8,39,-2,-7,-7
16:29:18.761858,-1,-1,1,2,1,-2,2,1
16:29:18.769850,3,1,1,-16,12,4,1,19
16:29:18.784841,2,1,-3,-1,2,2,3,2
16:29:18.791839,-4,4,-4,-6,0,0,8,-1
16:29:18.806830,5,1,-3,0,-1,0,-2,5
16:29:18.807828,-8,-1,0,1,5,3,-3,-8
16:29:18.821820,-6,-1,-1,-5,-1,-5,-2,-5
16:29:18.836812,-3,-1,-1,-10,1,2,2,-1
16:29:18.844804,-5,-2,-4,3,1,-3,-2,-9
16:29:18.851802,-1,0,-3,12,10,2,6,0
16:29:18.866794,-2,-2,-1,-7,0,-1,-2,-5
16:29:18.867790,4,0,2,2,6,2,0,-5
16:29:18.889776,-3,-4,-3,-24,-15,2,1,1
16:29:18.889776,0,-1,2,-7,8,2,1,1
16:29:18.904767,1,2,-1,-11,2,-4,-1,-2
16:29:18.911766,0,-3,-2,4,1,0,-3,-1
16:29:18.926756,-6,-2,0,0,-8,-1,3,-1
16:29:18.927753,-2,-2,-6,-8,-20,-1,0,-4
16:29:18.941745,-3,0,2,13,2,-7,-5,-8
16:29:18.949739,-3,-4,5,0,0,3,0,0
16:29:18.964733,0,-2,1,12,2,-3,-2,1
16:29:18.971727,-5,0,0,15,10,0,-1,0
16:29:18.986719,-2,-1,-1,-9,-30,-3,0,2
16:29:18.987719,-1,-1,10,15,10,-3,1,0
16:29:19.001710,-2,-1,0,0,1,1,-2,1
16:29:19.009704,-5,-2,-1,-4,8,0,1,-2
16:29:19.024694,0,-1,-14,-16,-13,1,-3,0
16:29:19.031690,-7,-9,-6,7,9,-6,-1,-4
16:29:19.046682,7,8,15,-8,1,-1,5,2
16:29:19.047682,-7,-6,-4,-11,-8,1,0,-3
16:29:19.061670,-1,0,2,-9,-8,-1,2,-2
16:29:19.069668,-3,0,-11,-5,1,0,0,0
16:29:19.084659,1,-1,4,2,-10,-6,-2,5
16:29:19.091652,1,0,-1,-1,-43,-3,0,-1
16:29:19.106643,-2,-3,-4,-33,1,1,3,2
16:29:19.107645,-6,-3,-8,-16,-4,-3,-1,-8
16:29:19.121634,2,-3,-3,-12,3,6,2,7
16:29:19.129630,-2,-2,-3,1,1,-6,0,1
16:29:19.144622,2,4,3,19,5,1,0,-3
16:29:19.152617,-6,-3,1,12,3,-2,1,-1
16:29:19.174600,-7,-3,-3,6,3,0,1,2
16:29:19.174600,2,1,-3,2,3,-5,-3,0
16:29:19.181597,4,2,-14,9,-33,1,1,2
16:29:19.189592,-6,-2,9,-3,12,1,0,-8
16:29:19.204585,4,6,6,49,22,6,1,7
16:29:19.211578,-4,-7,5,70,114,10,0,-1
16:29:19.226569,2,6,30,-49,-7,-6,-1,3
16:29:19.227571,3,7,21,-66,119,18,3,4
16:29:19.241560,8,5,-56,-19,6,-1,5,11
16:29:19.249558,-23,-20,11,54,-55,-23,-15,-23
16:29:19.264549,-1,-18,-32,-128,-128,-28,1,3
16:29:19.271541,2,6,38,127,127,50,5,2
16:29:19.287531,15,-10,-128,-128,-128,-45,9,11
16:29:19.287531,-36,-27,122,127,127,17,-22,-28
16:29:19.302524,28,5,-128,-128,-128,-6,25,23
16:29:19.309521,-25,15,127,127,127,82,-11,-18
16:29:19.324511,28,17,127,127,-128,7,26,32
16:29:19.332506,-12,10,19,127,127,20,-13,-11
16:29:19.347494,23,37,88,127,127,13,6,14
16:29:19.347494,6,-30,4,62,127,17,-6,13
16:29:19.362488,32,25,12,-128,-128,-61,17,19
16:29:19.369482,-41,2,127,127,127,9,-31,-40
16:29:19.384475,43,51,-128,-14,-128,-8,27,15
16:29:19.391470,-65,-107,-86,19,127,-71,-49,-46
16:29:19.414456,20,11,-103,-128,-128,-18,9,9
16:29:19.415452,-52,-76,-7,44,-128,-42,-29,-32
16:29:19.422449,1,18,-23,-55,-99,-39,-7,-10
16:29:19.429447,-5,10,20,127,-72,16,-14,3
16:29:19.444438,-23,-60,-64,-128,-83,-31,-15,-34
16:29:19.452429,9,36,-14,-128,-128,-17,17,44
16:29:19.467423,-29,-58,-8,127,24,-24,-27,-31
16:29:19.467423,41,91,6,-40,-77,18,14,14
16:29:19.482411,-73,-128,-71,71,-128,-30,-23,-32
16:29:19.489407,3,-48,42,127,-43,-8,-5,8
16:29:19.504401,33,112,45,-128,-128,122,2,-6
16:29:19.512393,-23,7,-21,-90,-77,-41,-16,-16
16:29:19.527386,33,91,96,127,-128,-5,9,13
16:29:19.527386,-128,-128,-128,-128,-128,-106,-52,-51
16:29:19.542377,47,101,40,-128,127,34,-7,7
16:29:19.549373,-128,-128,-128,127,-128,-27,-19,-43
16:29:19.572356,27,44,0,127,127,49,15,19
16:29:19.572356,64,110,39,-128,-128,-59,-2,14
16:29:19.587347,-49,-85,11,-73,-67,-51,-19,-25
16:29:19.594345,16,31,127,-128,127,127,19,5
16:29:19.609336,-52,-113,-103,-128,13,-59,-11,-19
16:29:19.610334,59,93,-14,-128,127,77,9,17
16:29:19.624327,-28,-61,-19,-96,-51,-7,-10,-15
16:29:19.632320,-11,-38,-24,121,85,16,2,0
16:29:19.647310,13,22,30,91,-18,-8,6,10
16:29:19.654308,8,21,-20,-128,-31,-46,-4,5
16:29:19.662301,-21,-76,-57,79,127,-5,-4,-2
16:29:19.669299,26,50,28,-128,-128,-1,2,11
16:29:19.684289,-43,-95,-48,16,52,3,-10,-14
16:29:19.692285,13,20,65,31,127,-41,3,8
16:29:19.707276,-5,12,58,127,-60,50,-1,-9
16:29:19.722267,5,-6,12,-35,-94,10,10,8
16:29:19.729262,30,31,34,127,-40,-7,8,18
16:29:19.730260,11,45,46,117,67,12,0,1
16:29:19.744251,-15,-34,-25,-41,105,23,-3,-7
16:29:19.759242,6,19,13,127,-10,-16,-4,2
16:29:19.767239,17,16,20,-10,-128,-38,2,8
16:29:19.774233,8,16,-7,64,-128,15,0,3
16:29:19.789226,-4,-5,-57,95,127,-11,-1,-1
16:29:19.790224,12,27,9,-128,-128,-30,5,4
16:29:19.804213,-30,-68,-57,-39,-21,-54,-15,-14
16:29:19.812208,-44,-67,-26,2,-128,-42,-17,-25
16:29:19.827202,-18,-28,-31,-8,-3,-29,-4,-6
16:29:19.834194,-3,-13,-39,-124,127,-20,1,1
16:29:19.850188,-16,-34,-55,-42,-128,-52,-10,-8
16:29:19.850188,-10,-24,-20,-128,127,39,1,-2
16:29:19.864176,-7,-32,-20,111,127,-2,1,2
16:29:19.872174,15,19,52,127,-73,-18,6,10
16:29:19.887165,-6,-22,5,127,105,13,-3,-4
16:29:19.894158,37,69,-33,-128,-128,-66,6,16
16:29:19.909151,-10,-6,4,-68,-49,-9,-5,-7
16:29:19.910149,-3,27,31,106,-128,35,-8,-9
16:29:19.924140,-20,-27,-30,-74,-65,-27,-8,-11
16:29:19.932137,13,28,11,-40,-107,-37,-3,-2
16:29:19.947125,-12,8,-5,-113,-128,-20,-14,-13
16:29:19.954122,14,30,-13,-128,103,-67,1,8
16:29:19.969113,-46,-55,4,-128,-128,-40,-26,-29
16:29:19.970111,4,0,19,127,80,45,14,3
16:29:19.985105,20,34,44,-128,-69,-18,9,13
16:29:19.992101,-15,-19,-4,-128,-59,24,-4,-2
16:29:20.007092,4,12,15,127,8,25,-4,1
16:29:20.014086,1,-13,-18,-92,127,2,3,4
16:29:20.029075,18,29,12,34,-86,-9,4,8
16:29:20.037073,5,19,81,127,127,36,6,0
16:29:20.044066,-9,-15,-36,-62,-51,-15,-4,-4
16:29:20.059057,8,6,35,43,90,21,7,5
16:29:20.067054,17,40,32,-77,-8,8,7,6
16:29:20.074047,-10,-16,-8,-67,4,43,-2,-4
16:29:20.090039,-14,-13,1,-47,-29,-6,-8,-10
16:29:20.105031,-13,-19,-14,5,119,-21,-4,-7
16:29:20.105031,-10,-15,-2,-128,-71,26,-11,-6
16:29:20.120019,-5,0,-3,16,-11,27,-3,-6
16:29:20.127017,-11,-15,-51,27,127,-29,-3,-2
16:29:20.135011,1,5,2,110,-128,-33,1,5
16:29:20.150000,-19,-27,13,55,39,50,1,-11
16:29:20.156999,14,42,25,68,71,5,0,3
16:29:20.164991,-2,-5,-43,-89,-8,30,1,-3
16:29:20.171990,-1,-11,13,109,127,50,5,3
16:29:20.186981,13,13,37,127,127,45,12,7
16:29:20.193976,20,31,14,-94,-84,2,9,8
16:29:20.209963,0,4,-26,-95,-128,-35,-5,-1
16:29:20.216962,-40,-66,-50,127,24,58,-17,-22
16:29:20.224958,26,41,-12,12,-128,-28,11,10
16:29:20.231953,14,36,88,-8,36,-14,3,5
16:29:20.246941,12,3,-31,-89,-128,-75,-1,11
16:29:20.254937,-11,1,5,-19,-6,-22,-3,-7
16:29:20.276925,-4,-5,-39,-128,-52,1,1,-4
16:29:20.277924,-11,-20,-18,-128,127,64,-2,-4
16:29:20.284919,-31,-49,-43,-10,-128,-87,-21,-18
16:29:20.291916,-14,-24,-67,-128,-128,-58,-6,-2
16:29:20.306907,20,26,35,77,127,29,12,10
16:29:20.314902,-17,-40,-54,-2,-4,-1,2,-2
16:29:20.329889,9,23,63,127,-51,-5,3,1
16:29:20.336888,-24,-40,-13,20,-128,2,-8,-13
16:29:20.344880,9,18,7,-128,15,5,4,7
16:29:20.351879,-5,-9,-24,-71,-128,-16,-7,-4
16:29:20.366870,18,28,39,113,127,24,11,11
16:29:20.374862,2,5,-11,-128,-82,-8,4,-1
16:29:20.389852,2,0,8,67,-94,-34,0,1
16:29:20.396849,2,3,-1,-37,-2,4,0,3
16:29:20.404843,8,3,2,-8,5,-1,7,0
16:29:20.411842,-7,-5,0,-1,3,-7,-9,-9
16:29:20.426833,-23,14,5,5,12,22,22,-25
16:29:20.434825,74,35,0,-7,-6,-21,-55,-48
16:29:20.449816,-44,-27,-13,-10,-15,-29,53,-7
16:29:20.449816,-128,-44,-10,-1,20,67,127,127
16:29:20.464806,-128,-27,-39,-40,-59,-77,-128,51
16:29:20.471805,4,26,-1,-18,-25,14,-57,127
16:29:20.486796,-118,53,35,31,20,-71,-128,-128
16:29:20.494788,-37,21,27,24,59,79,123,-20
16:29:20.524770,73,1,-74,-75,-106,-80,127,-128
16:29:20.524770,47,-26,11,21,29,96,22,-10
16:29:20.525769,6,16,13,16,14,-4,127,-91
16:29:20.531768,-23,1,-9,-10,10,19,18,-18
16:29:20.546757,11,1,-2,-51,-25,-3,-31,17
16:29:20.554754,-128,-49,-63,-128,-12,11,-18,26
16:29:20.569745,22,-6,-25,-128,55,-11,-13,20
16:29:20.576740,-128,28,26,-11,14,-6,-40,-93
16:29:20.584735,-78,-43,-47,-2,-47,-67,-56,19
16:29:20.591731,7,25,21,104,52,22,4,-17
16:29:20.607722,-50,90,119,-22,7,-77,-12,-50
16:29:20.614717,-76,-20,73,-86,30,-35,-57,-69
16:29:20.629708,95,-26,-4,86,73,-27,-10,-36
16:29:20.636702,-17,-52,70,97,127,-3,-37,116
16:29:20.651694,-3,-6,26,-128,-128,1,9,-39
16:29:20.652693,-57,-47,29,-56,127,-71,-46,37
16:29:20.666682,74,-49,-3,44,116,94,65,64
16:29:20.674681,-38,-5,1,6,-6,42,22,87
16:29:20.689671,-31,-2,15,-39,94,60,99,-44
16:29:20.697666,127,-128,6,62,105,14,17,113
16:29:20.719649,-15,-5,-99,-128,-128,10,-1,-64
16:29:20.719649,-54,10,16,85,-128,-11,-13,-59
16:29:20.726646,17,1,72,25,-128,-8,22,-55
16:29:20.734643,127,-74,-100,-1,-42,-22,-1,5
16:29:20.749634,18,-16,15,-10,-58,3,-98,-56
16:29:20.756628,46,21,-19,-86,39,49,-35,2
16:29:20.771619,-19,-10,-40,-14,-72,-26,15,-25
16:29:20.772617,0,4,-55,-128,-128,-8,6,-13
16:29:20.787611,-76,-22,8,90,-128,-33,12,5
16:29:20.794607,2,-10,-6,41,127,-1,9,19
16:29:20.809597,30,19,15,-6,-12,67,66,94
16:29:20.817591,-71,12,12,127,-33,6,-17,-37
16:29:20.831582,-32,-7,30,3,-128,28,8,-15
16:29:20.832583,26,14,47,-43,21,4,6,34
16:29:20.847573,-23,3,21,-68,-125,-7,0,-6
16:29:20.854567,7,13,49,-51,127,32,31,0
16:29:20.869560,1,2,4,44,127,-63,-52,-27
16:29:20.884551,-22,22,56,57,-98,-7,-4,-37
16:29:20.892543,24,5,-25,-76,-128,-4,-5,44
16:29:20.892543,13,0,-7,21,-8,4,-10,-1
16:29:20.907534,9,-2,-1,-28,-51,-20,27,3
16:29:20.914533,-15,1,-5,-22,-9,-2,-7,-6
16:29:20.929523,2,-6,-18,-8,36,-8,-8,-7
16:29:20.936515,-10,-5,-11,39,36,7,4,1
16:29:20.952506,3,13,12,-36,-20,23,25,20
16:29:20.952506,11,3,-5,5,-1,35,0,11
16:29:20.967501,-13,-8,-3,7,27,-2,-10,-4
16:29:20.974496,-10,0,2,0,-8,-6,2,-10
16:29:20.989487,3,0,-7,-6,-5,3,-16,7
16:29:20.997481,-6,-10,-6,-4,-8,-13,6,0
16:29:21.011471,7,5,3,-1,2,3,22,25
16:29:21.012470,-10,-8,-8,-7,-5,-14,-13,-25
16:29:21.027461,-5,-3,1,27,44,7,-2,-12
16:29:21.034459,-5,-3,1,-60,-22,-18,-4,-8
16:29:21.049450,-9,-7,-6,21,61,3,0,-6
16:29:21.057445,4,3,2,5,17,7,5,8
16:29:21.072433,-4,-2,-1,-2,-9,2,7,-3
16:29:21.072433,-10,-5,-4,-5,-10,-9,-5,-8
16:29:21.087423,-7,-6,1,1,-7,-11,15,-15
16:29:21.094422,7,8,3,2,7,17,20,21
16:29:21.109413,-6,-1,0,2,0,-1,1,-11
16:29:21.117408,16,5,6,-4,109,12,-4,20
16:29:21.132395,-5,0,0,-124,-71,-13,-7,-9
16:29:21.132395,-1,-4,-2,49,-24,-10,-3,-6
16:29:21.154385,2,2,0,-4,8,-1,-8,-4
16:29:21.155384,-1,1,2,-7,0,4,-6,-10
16:29:21.169376,0,-10,-1,0,-2,-2,-10,-16
16:29:21.176370,-7,0,-2,-3,0,8,2,-4
16:29:21.192358,1,2,-4,-4,1,5,13,8
16:29:21.192358,2,0,-3,-21,-9,-4,2,-3
16:29:21.207352,2,0,-1,26,-37,-8,9,15
16:29:21.214345,0,-2,-1,54,-35,-2,-2,-3
16:29:21.229339,-2,-1,-1,26,55,4,17,-6
16:29:21.237334,13,-2,-1,0,4,10,1,15
16:29:21.252324,7,1,1,-1,-6,-3,-6,-4
16:29:21.252324,0,-1,-2,-1,-3,-5,-4,-7
16:29:21.267315,5,3,0,3,3,19,16,8
16:29:21.274311,-2,-2,2,0,2,-3,-5,-3
16:29:21.289302,-2,0,3,0,1,-6,-6,-8
16:29:21.297294,-2,-2,-2,0,3,1,-2,-1
16:29:21.312285,-1,0,0,-3,-1,13,44,2
16:29:21.312285,0,-1,-1,1,3,3,-4,3
16:29:21.327278,-6,-3,0,-4,-8,-5,-8,-10
16:29:21.334274,10,3,-2,-1,4,14,10,17
16:29:21.349264,14,2,0,-1,9,21,19,19
16:29:21.364256,-8,-2,-3,0,-9,-19,-7,-12
16:29:21.372250,-3,1,-2,0,0,1,-8,-9
16:29:21.372250,-8,-1,-4,-3,2,6,40,-1
16:29:21.387242,-2,-2,-1,0,5,-2,-5,-6
16:29:21.394237,-3,-1,-2,1,0,-1,0,1
16:29:21.409227,-7,-3,-4,3,-8,0,0,-7
16:29:21.417221,-4,-5,-5,-7,-8,-8,-12,5
16:29:21.432211,4,1,-1,1,-3,-2,4,16
16:29:21.432211,-3,-6,1,2,-1,3,2,-10
16:29:21.447202,-11,-3,-4,-1,2,-2,-19,-20
16:29:21.454201,-3,-1,0,-2,-1,3,-1,-3
16:29:21.469188,0,-1,-1,-2,-3,-3,-5,-4
16:29:21.477186,-2,-1,-2,-3,-5,-2,3,-3
16:29:21.492174,0,-3,-1,2,9,8,23,-3
16:29:21.499176,1,1,2,9,9,1,1,1
16:29:21.514161,-2,-2,-1,7,-3,-3,3,-1
16:29:21.515160,0,-3,-2,-3,0,1,0,-4
16:29:21.529151,-5,-3,-1,2,-3,0,1,-4
16:29:21.537149,-1,0,-4,-2,-1,-1,0,0
16:29:21.552140,-3,-2,-1,-2,-3,2,0,0
16:29:21.559133,1,-4,-1,-1,0,-2,-4,0
16:29:21.567131,0,-1,-2,0,0,-1,2,5
16:29:21.574123,1,0,3,0,-1,1,1,1
16:29:21.589115,-1,-3,-2,3,4,-2,-3,-2
16:29:21.604106,-5,-4,-2,-3,-1,3,7,-5
16:29:21.619097,0,-1,-3,-5,-4,2,-3,1
16:29:21.620095,1,-1,2,2,1,0,0,-2
16:29:21.634088,-11,-5,-1,-4,-7,-2,-8,-15
16:29:21.635089,-3,-1,-5,-3,-4,-7,-1,-2
16:29:21.650080,0,0,1,0,0,-2,-6,-5
16:29:21.657076,2,1,-3,3,4,-2,6,6
16:29:21.672066,3,-1,-2,0,6,4,-5,4
16:29:21.679059,-1,1,1,2,-3,-3,-1,-3
16:29:21.702048,-1,-2,0,7,-5,-7,-2,-4
16:29:21.703047,-3,-2,1,-5,1,-1,-3,0
16:29:21.709041,0,-3,0,-3,-1,-6,-2,-5
16:29:21.717039,-2,-3,0,-2,-4,-4,-8,-4
16:29:21.732029,12,2,2,2,0,-4,6,21
16:29:21.740025,2,-1,-3,-1,-1,-12,-33,2
16:29:21.754014,2,1,-1,3,-2,-2,12,5
16:29:21.755012,-3,-3,-3,-3,0,0,-4,-4
16:29:21.770005,1,3,2,0,1,2,0,1
16:29:21.777002,-3,0,-1,2,2,0,1,-3
16:29:21.791993,-4,-1,-3,-3,-8,-2,-2,-4
16:29:21.799987,1,1,-1,0,1,1,-2,2
16:29:21.821974,0,-1,-2,-1,-9,-9,-3,-2
16:29:21.822971,0,0,2,1,2,6,6,3
16:29:21.828969,-4,-3,-3,-4,-5,-1,-3,-5
16:29:21.836965,-10,-5,-2,-1,-3,2,9,-19
16:29:21.859952,0,2,0,-1,0,0,-7,2
16:29:21.859952,1,-1,-1,0,0,3,10,4
16:29:21.874939,-1,-5,0,-1,-1,-3,-2,-3
16:29:21.874939,-1,-2,2,1,-1,-3,-7,-7
16:29:21.889929,2,0,1,0,1,-3,11,5
16:29:21.896925,-1,0,2,-1,6,5,3,-3
16:29:21.911919,-2,-1,-4,-4,-1,-3,-2,-5
16:29:21.919914,0,-4,-2,4,-3,-17,-40,1
16:29:21.934904,1,1,-4,-1,-4,3,9,0
16:29:21.934904,-4,-3,-3,-4,-3,2,9,-1
16:29:21.949892,0,-3,-2,-4,0,-3,-12,-3
16:29:21.956891,3,1,0,0,2,-1,-11,-4
16:29:21.971882,-3,1,-1,-1,-2,-5,0,-1
16:29:21.986873,2,-3,1,2,3,-1,3,3
16:29:21.993868,-2,0,-4,-2,-2,-3,1,0
16:29:21.994864,-1,-2,0,-1,-2,-7,-17,-3
16:29:22.009858,4,2,1,1,5,7,-18,0
16:29:22.016854,-1,-2,-1,-2,-5,-2,1,-6
16:29:22.031845,-4,-4,-5,-4,-6,-6,-5,-8
16:29:22.039840,-3,-3,-1,-3,-4,-4,-8,-3
16:29:22.054828,-5,-1,0,1,-2,-4,-2,-10
16:29:22.054828,-4,-3,4,1,-2,1,1,-2
16:29:22.069821,-2,-3,0,-3,0,0,-16,-9
16:29:22.076817,1,0,-1,-2,3,-1,2,6
16:29:22.091808,-5,-4,-1,-3,-2,-3,-9,-7
16:29:22.099803,1,-3,-4,-2,-1,1,14,11
16:29:22.114791,6,3,1,-1,1,2,-4,11
16:29:22.114791,-2,-1,-1,1,0,-4,-7,0
16:29:22.129784,-6,-5,-3,-3,0,-3,-2,-1
16:29:22.136777,0,-1,1,-3,2,-1,0,-1
16:29:22.151771,-2,1,-3,1,0,2,-7,-3
16:29:22.159763,2,1,-3,-4,-2,-1,7,11
16:29:22.174754,-2,-2,0,-3,-1,-1,0,-2
16:29:22.174754,0,-2,-2,-1,-2,-7,-1,3
16:29:22.189748,1,1,1,1,3,9,6,-1
16:29:22.197743,-1,-2,-3,0,-3,-3,-1,-3
16:29:22.211733,-1,0,2,-1,3,0,-2,1
16:29:22.219729,3,0,-3,-4,-1,2,-1,1
16:29:22.234717,0,0,0,1,-1,-2,-1,-2
16:29:22.235719,-3,-1,1,-2,-2,0,-3,-1
16:29:22.249709,-2,-4,-1,1,-2,-5,-2,1
16:29:22.256704,-3,-2,-1,-4,0,1,0,-3
16:29:22.271699,1,0,-2,-2,-1,-3,-3,-3
16:29:22.279690,-3,-1,-1,-2,-1,-3,1,0
16:29:22.294683,0,-2,2,1,-1,2,0,3
16:29:22.294683,-1,2,-6,-2,-1,-3,-7,-3
16:29:22.309671,0,-4,-3,-1,-2,3,-2,0
16:29:22.316669,2,0,3,3,6,1,0,-1
16:29:22.331657,4,0,-2,-4,-2,0,-7,5
16:29:22.339656,-1,-4,-1,1,0,-5,-2,-1
16:29:22.354646,-5,-2,-3,-1,-4,0,7,-3
16:29:22.354646,6,-2,-2,-3,0,1,-10,1
16:29:22.376631,1,-2,0,0,-3,1,4,-4
16:29:22.377632,-2,0,1,2,-1,1,-1,-2
16:29:22.391622,1,0,1,4,4,-4,-3,-1
16:29:22.399619,-2,-2,-3,-3,-5,-11,-17,-2
16:29:22.421605,12,4,-2,2,3,10,8,15
16:29:22.422604,-1,-4,-1,-1,-6,-3,2,-4
16:29:22.429597,0,-1,1,2,2,3,0,-2
16:29:22.436593,-5,-6,-5,-1,-5,-6,-8,-8
16:29:22.451584,1,-1,-1,-2,-1,3,0,0
16:29:22.459582,-1,0,-4,-3,-1,-3,-4,-6
16:29:22.474569,0,-2,2,-1,-5,-7,-4,2
16:29:22.482568,-4,-2,1,1,1,-1,0,-2
16:29:22.489563,0,-1,0,-4,-4,-1,-2,-4
16:29:22.497555,-1,-1,-3,-1,0,-1,-2,0
16:29:22.511548,-4,0,-3,-2,-2,-3,-4,-3
16:29:22.519545,7,-4,-1,-5,-4,2,10,0
16:29:22.534536,-3,-1,0,0,-1,-2,-3,-2
16:29:22.541528,-5,-4,-3,-3,-3,-1,3,-8
16:29:22.556519,1,0,-1,-1,-4,0,-4,0
16:29:22.557521,2,-1,-1,0,-4,-4,-7,-3
16:29:22.572512,4,-3,-4,-2,-2,1,-8,4
16:29:22.579507,-3,-2,1,-1,-3,-7,-1,-9
16:29:22.594498,0,-4,-4,1,-2,8,4,0
16:29:22.601494,-5,-4,-3,-2,-5,-9,-19,-4
16:29:22.617488,-3,1,0,3,-1,0,5,-3
16:29:22.617488,-4,0,-1,-1,0,3,3,3
16:29:22.632474,-1,-4,-1,-3,-7,-9,-7,-2
16:29:22.639468,-5,-1,0,2,-2,3,-10,-7
16:29:22.654458,0,-3,-4,-1,0,5,6,2
16:29:22.669452,-1,-1,0,-1,1,-2,1,-2
16:29:22.676446,-4,0,-3,0,2,-2,-8,-12
16:29:22.677447,3,0,-5,-4,-1,-6,-3,13
16:29:22.692437,-5,-1,-2,-1,-5,-16,-41,-11
16:29:22.699434,1,-1,-2,1,2,7,12,3
16:29:22.721418,-2,-1,-2,-2,-1,-2,-1,-1
16:29:22.722418,0,0,-2,3,-1,0,-1,-3
16:29:22.737407,-3,1,1,0,6,6,-1,2
16:29:22.737407,6,-3,0,0,0,-1,3,1
16:29:22.752401,-2,0,-1,-1,-1,-4,-23,-12
16:29:22.759397,1,-3,-4,-3,-2,-1,-7,1
16:29:22.774388,-6,0,-1,-1,1,4,13,-1
16:29:22.789379,-3,1,-1,-2,1,-3,-3,-3
16:29:22.796371,-6,-1,-1,-4,-2,-1,5,3
16:29:22.797371,-4,0,-2,-2,2,4,-1,-2
16:29:22.812363,-1,0,-3,-1,1,-4,-3,-1
16:29:22.819360,-1,0,-1,1,-1,-4,-2,-2
16:29:22.834350,1,2,3,6,0,2,2,4
16:29:22.842346,0,1,-1,-2,-4,-4,-1,-5
16:29:22.857333,5,-2,-1,-3,-2,-3,-9,-1
16:29:22.857333,-1,-5,0,-2,-2,-2,-3,-2
16:29:22.872324,0,-2,-1,0,2,-1,0,-1
16:29:22.879323,2,1,0,-2,-1,-1,-2,-1
16:29:22.894314,0,1,0,2,5,-6,-7,-4
16:29:22.902309,1,-3,-3,-2,-1,1,-16,2
16:29:22.917297,1,2,-1,-1,2,3,16,6
16:29:22.917297,-6,0,0,-2,-1,0,-11,-10
16:29:22.932291,-5,-5,-1,1,-2,-2,0,-5
16:29:22.947282,-1,-4,-4,-5,-4,-4,3,4
16:29:22.954277,1,1,1,-1,1,1,5,-5
16:29:22.962269,0,-3,-1,2,-6,-6,-2,-1
16:29:22.977262,-2,-1,-2,0,1,0,-2,-3
16:29:22.977262,-8,-3,0,0,3,0,-5,-10
16:29:22.992251,0,-3,-1,-2,-4,-3,-6,1
16:29:22.999247,-7,1,-1,-1,1,-7,-26,-10
16:29:23.014239,-7,-5,-2,0,1,7,0,2
16:29:23.022235,-6,-1,1,-3,-1,0,2,-5
16:29:23.037223,-1,2,0,-1,-2,3,5,-1
16:29:23.037223,-2,-4,-3,-3,-6,-5,-4,-1
16:29:23.052214,-3,0,-2,1,-1,-2,-15,-14
16:29:23.059210,8,1,-1,1,-1,2,7,8
16:29:23.075202,-6,-4,-3,-4,-5,-1,-3,-7
16:29:23.089191,0,-3,-2,-1,-1,5,-7,-8
16:29:23.097186,6,4,-2,0,-2,3,5,3
16:29:23.097186,-6,0,-4,-3,-7,-9,-36,-14
16:29:23.112180,-2,-1,-3,-5,-9,-4,3,9
16:29:23.119172,-3,-1,-2,-3,-3,1,1,-4
16:29:23.134163,-1,-1,1,-1,-4,-17,-32,-3
16:29:23.142161,1,0,-1,-3,-4,1,4,-3
16:29:23.157150,-8,-1,-1,-3,-3,-4,-3,-5
16:29:23.157150,-4,-1,2,0,2,4,27,8
16:29:23.172143,-2,2,-1,1,2,-1,-15,-4
16:29:23.179136,4,0,-1,0,-6,-5,2,-5
16:29:23.194126,-1,3,-1,1,2,2,-12,-9
16:29:23.202124,1,-2,-1,-3,-4,-6,-6,-1
16:29:23.217112,-5,-3,-2,1,-2,-6,-7,-8
16:29:23.218112,-5,1,-3,-2,-5,3,9,7
16:29:23.232106,1,1,-2,2,1,0,-1,-7
16:29:23.240098,0,0,-3,-3,1,-5,-3,1
16:29:23.254090,-3,-2,0,-5,0,-2,-2,-4
16:29:23.270081,3,-1,1,-2,-1,3,7,13
16:29:23.277078,1,-5,-4,-3,0,-25,-52,5
16:29:23.278078,1,-2,-1,3,3,8,16,3
16:29:23.292066,-3,2,-1,0,-3,-2,2,-7
16:29:23.300070,-5,0,0,-2,-5,-8,-17,-5
16:29:23.315054,9,-1,0,-3,-4,-6,5,4
16:29:23.322051,-5,-3,-2,-2,3,-2,-4,-3
16:29:23.337041,0,2,3,4,1,-5,-1,-1
16:29:23.338041,10,1,-2,-2,1,-1,11,34
16:29:23.359025,-4,-2,-2,0,-1,-1,10,-6
16:29:23.360027,-2,-3,-2,-3,0,-5,-4,1
16:29:23.375018,-8,1,6,0,4,3,-4,0
16:29:23.390006,-2,1,2,-1,5,3,3,-3
16:29:23.397004,-1,-3,0,-5,-4,-2,-2,-5
16:29:23.405000,3,-2,0,2,4,2,4,0
16:29:23.411995,2,2,1,0,2,2,2,7
16:29:23.419990,0,-2,-3,-2,-1,-4,4,-4
16:29:23.434978,-4,-3,1,-3,-2,1,0,6
16:29:23.441977,0,-4,-4,-2,2,3,-7,1
16:29:23.456968,-2,-3,1,1,2,4,13,-12
16:29:23.464960,0,0,3,-1,1,5,2,-1
16:29:23.478952,6,-1,0,-2,-2,6,1,5
16:29:23.479951,3,-1,0,-1,0,5,10,5
16:29:23.494944,-8,-1,-2,-1,-1,-3,-3,-4
16:29:23.501940,-3,-2,1,2,-4,-5,-6,-3
16:29:23.516931,1,-1,0,-3,4,12,8,9
16:29:23.524923,-2,-3,-1,0,1,8,-3,0
16:29:23.539917,5,3,0,1,-2,-6,-5,11
16:29:23.540914,-5,-1,-2,1,1,-3,-5,-6
16:29:23.554904,-1,-2,-1,-2,1,6,2,0
16:29:23.561903,-8,-3,2,-2,-3,1,2,-1
16:29:23.576893,-1,0,-3,0,-1,0,-2,0
16:29:23.584888,-1,0,2,-1,0,-14,-22,0
16:29:23.606876,0,0,0,2,0,-3,2,3
16:29:23.607874,0,-1,0,0,3,1,0,-1
16:29:23.614867,2,-2,0,-1,1,-4,-10,4
16:29:23.621866,-10,-2,-2,-3,-2,-3,-9,-7
16:29:23.636855,-4,-3,-4,-7,-3,0,6,2
16:29:23.644849,0,-3,-2,-1,0,-5,-3,0
16:29:23.659840,-4,2,0,-3,1,-6,-15,-9
16:29:23.659840,-4,1,-1,0,-1,0,2,-4
16:29:23.681829,-2,1,0,-1,-2,-1,0,-4
16:29:23.682829,9,-2,-1,0,-1,-16,-30,1
16:29:23.696817,-3,-4,-2,0,-1,-2,2,-5
16:29:23.704813,-7,-1,-2,-3,-1,-3,1,-2
16:29:23.719805,-3,0,1,0,1,6,1,-6
16:29:23.719805,11,3,0,1,4,9,33,21
16:29:23.734795,-2,-2,-1,-2,-4,-9,-5,-11
16:29:23.741790,8,0,-1,1,1,-4,-10,3
16:29:23.756780,-2,1,-2,0,-5,-2,1,-2
16:29:23.764776,-4,-1,-1,-2,2,8,17,-6
16:29:23.779766,1,-1,-1,-1,0,-2,-3,-3
16:29:23.779766,2,-2,-2,1,2,12,5,6
16:29:23.794757,-2,-2,-4,-4,-4,-6,6,-7
16:29:23.801752,2,0,-1,0,-2,-7,-7,-3
16:29:23.824738,5,1,0,0,2,-5,4,6
16:29:23.824738,-7,-1,0,-2,-4,-10,-10,-5
16:29:23.839729,0,2,-1,-1,-3,1,10,-2
16:29:23.839729,1,1,0,-3,0,1,-4,-2
16:29:23.854723,-1,-3,1,-1,0,1,-2,-7
16:29:23.861715,1,0,-2,2,-2,-4,3,11
16:29:23.876707,-3,-1,-4,-1,-1,-18,-33,-6
16:29:23.884701,-2,-2,-1,1,0,0,7,0
16:29:23.899699,5,1,2,-2,2,3,-2,7
16:29:23.899699,4,-3,2,3,6,2,11,-3
16:29:23.914686,1,2,-1,-1,2,3,7,5
16:29:23.922679,2,0,-4,-4,-1,1,5,3
16:29:23.937672,-1,-1,-2,0,-1,-5,-14,-5
16:29:23.944667,0,3,1,0,-2,-2,1,0
16:29:23.959657,-1,-4,0,1,2,-2,-1,-4
16:29:23.959657,0,-1,-1,-2,-4,-13,-35,-2
16:29:23.974649,5,1,-2,0,-2,-3,-6,-9
16:29:23.981642,-3,-1,-3,0,0,0,-9,-1
16:29:23.997635,-2,1,0,0,-3,-4,-5,-7
16:29:24.004630,-2,-1,-1,0,2,4,-1,-2
16:29:24.019621,16,1,-3,2,7,12,-1,8
16:29:24.020621,2,0,-4,0,-2,-10,-11,6
16:29:24.034610,-1,-3,0,0,0,0,-1,-3
16:29:24.041607,-1,-1,-5,1,-1,0,1,0
16:29:24.057596,-5,-3,-1,-4,-4,-8,-14,-8
16:29:24.064594,-1,0,-3,-2,1,1,2,5
16:29:24.079581,2,-1,-3,-1,2,5,22,7
16:29:24.080581,10,-3,-2,-4,-3,-1,-5,0
16:29:24.101571,0,-2,0,1,0,-1,2,2
16:29:24.102570,4,-2,0,-1,-1,1,-3,0
16:29:24.117558,1,-2,0,-3,-1,-7,12,2
16:29:24.124557,2,-1,0,-1,3,2,-18,3
16:29:24.139547,-8,-7,-3,-4,-2,-5,5,1
16:29:24.139547,-1,-1,-2,-2,0,5,6,1
16:29:24.154538,-2,0,1,0,0,4,-1,0
16:29:24.161536,0,-3,-1,2,0,4,17,7
16:29:24.176521,7,3,-3,0,3,-8,-6,-1
16:29:24.191513,-3,2,2,0,3,3,8,8
16:29:24.199510,-4,-2,0,-4,-5,-10,-2,-6
16:29:24.200507,0,-1,-1,-1,2,3,15,14
16:29:24.214501,3,5,3,-1,1,4,-8,8
16:29:24.222493,-2,0,-1,0,-1,-4,-21,1
16:29:24.237487,2,-3,-1,0,1,0,6,0
16:29:24.244483,-5,-3,1,1,0,4,11,4
16:29:24.259474,-4,-2,-6,3,-2,-6,2,-7
16:29:24.260473,5,-4,-6,-6,-1,2,1,10
16:29:24.274464,-3,-3,-4,-2,-2,-1,0,-5
16:29:24.289455,-4,-3,-1,-4,1,3,10,-1
16:29:24.297447,-1,-4,-2,-2,-5,-7,-4,-3
16:29:24.304446,6,1,2,2,4,8,14,16
16:29:24.319437,0,-3,0,2,-3,-7,-14,0
16:29:24.326432,-3,-2,-5,-5,-5,-9,-19,-13
16:29:24.334427,1,-2,0,1,3,11,19,4
16:29:24.342425,-5,-1,1,1,-2,-6,11,0
16:29:24.357410,-9,-2,0,-3,0,1,-5,-3
16:29:24.364408,-2,-5,-3,0,1,-1,1,1
16:29:24.379400,-2,-1,-2,0,-2,0,-1,1
16:29:24.394391,0,-2,0,0,1,1,6,6
16:29:24.395390,0,-1,-4,-2,-4,-6,-6,-2
16:29:24.402382,3,0,-3,0,1,0,18,2
16:29:24.417377,3,1,2,1,2,0,-1,0
16:29:24.424372,-6,-2,1,0,0,-13,-22,6
16:29:24.439363,-6,-1,0,-4,-5,-8,-4,-9
16:29:24.447358,1,1,-1,-2,1,7,10,7
16:29:24.461348,3,-4,-1,-2,-3,-1,-6,5
16:29:24.462345,-5,2,0,1,0,-2,-1,0
16:29:24.477340,-1,-1,2,-3,-3,-4,0,-3
16:29:24.484334,-3,-1,-3,-2,-1,0,-2,-3
16:29:24.499325,-3,-2,1,-1,-6,-12,-7,-12
16:29:24.507321,4,-2,-1,1,1,0,-5,10
16:29:24.522309,0,1,0,2,-2,12,53,-1
16:29:24.522309,-4,0,-2,0,-5,-7,-15,1
16:29:24.537303,2,1,0,0,1,-1,-6,-4
16:29:24.552293,-5,-4,-1,-1,-2,-3,11,-9
16:29:24.559289,9,1,3,0,3,12,18,13
16:29:24.567284,-4,-1,0,0,-3,1,-2,-1
16:29:24.582272,-3,2,-2,-5,-2,-4,-1,1
16:29:24.582272,-3,-4,0,0,-2,-2,9,-1
16:29:24.597263,0,0,1,0,-2,2,4,5
16:29:24.604260,-3,0,2,-1,2,-4,-19,0
16:29:24.619250,-3,-1,-3,-3,-1,-3,18,-7
16:29:24.627247,-7,-5,-1,-2,0,-5,-12,-5
16:29:24.642236,3,-1,-2,-1,-3,-1,-2,1
16:29:24.642236,-1,4,1,-1,-4,-1,-8,-6
16:29:24.657226,-2,-3,0,2,1,-2,-3,-6
16:29:24.664221,-1,0,1,-2,5,0,-1,1
16:29:24.679213,6,3,1,4,0,9,6,22
16:29:24.687210,-3,-1,-1,-1,0,0,-1,-2
16:29:24.709197,-4,-4,-2,-1,-2,-6,-1,-4
16:29:24.710194,-2,1,-2,-3,-1,0,31,3
16:29:24.717192,10,1,-3,1,2,4,2,15
16:29:24.724185,-3,-2,0,-2,-2,-4,0,-4
16:29:24.739176,7,-4,-3,0,-4,-8,-29,-11
16:29:24.747170,1,-2,-4,-5,-4,-3,2,8
16:29:24.762163,-4,-3,-1,-2,1,4,2,-2
16:29:24.762163,-3,-1,-2,-4,0,0,-2,-6
16:29:24.777155,-3,0,0,-2,-1,-8,-11,2
16:29:24.784148,-6,-5,-4,-3,1,0,3,-1
16:29:24.800138,7,1,-2,-3,-1,2,5,10
16:29:24.807137,0,-2,-2,1,2,1,-7,-2
16:29:24.822127,-5,-5,-2,-4,-4,-3,-3,-7
16:29:24.822127,0,-2,-4,-4,-1,-4,19,11
16:29:24.837118,-3,5,5,3,-1,-6,-2,4
16:29:24.852109,-6,1,-2,0,1,0,3,-3
16:29:24.859104,-3,-2,2,-3,-2,-3,-2,2
16:29:24.867098,-2,-3,-4,-1,0,-4,-16,-8
16:29:24.882090,-1,-5,-3,-2,1,-10,-29,0
16:29:24.883088,-1,-2,4,0,-1,-2,-1,-5
16:29:24.897081,-1,3,0,1,-2,3,4,-3
16:29:24.904076,-4,-1,-1,-3,4,6,3,2
16:29:24.927063,-1,-1,1,2,-2,-4,8,-3
16:29:24.927063,12,2,2,3,0,5,15,6
16:29:24.942054,-2,-2,1,0,3,5,2,-3
16:29:24.942054,-5,-5,-2,-2,-3,-2,-3,-4
16:29:24.964039,-3,-3,-1,-7,-3,0,16,-6
16:29:24.972035,-1,-3,-2,1,2,6,7,-2
16:29:24.980027,-1,-2,-3,-3,-1,-6,-2,-7
16:29:24.987026,0,-3,-1,-1,-1,0,1,2
16:29:25.002016,5,-1,-1,-2,0,0,-1,4
16:29:25.010012,-3,-2,-2,0,1,-1,0,-1
16:29:25.017007,0,-1,-1,-3,-3,-2,-4,-6
16:29:25.025003,-3,-5,1,0,4,3,0,-5
16:29:25.039990,2,-3,0,7,8,-4,0,0
16:29:25.046986,1,-2,2,-11,-8,8,-3,5
16:29:25.061980,3,-1,-2,0,1,-1,17,14
16:29:25.062977,0,0,0,-2,-3,-2,-2,-4
16:29:25.076970,-1,-2,1,-1,0,-9,-10,3
16:29:25.084963,0,-1,2,0,0,7,8,1
16:29:25.099956,-2,2,-1,-3,0,-2,5,-5
16:29:25.106952,-15,-6,-3,-1,-1,-3,4,-5
16:29:25.121943,-2,-1,-3,0,-2,0,-7,-6
16:29:25.122942,1,0,0,-2,-1,2,13,14
16:29:25.136933,-3,0,-1,-1,0,-1,1,0
16:29:25.144928,-1,-2,0,-3,-1,-5,0,-9
16:29:25.159916,0,1,5,1,-1,-6,3,5
16:29:25.166915,-1,1,-3,0,0,-4,-9,-5
16:29:25.181906,6,3,0,2,1,6,16,28
16:29:25.182905,-2,2,-1,0,3,0,-1,1
16:29:25.204890,0,-1,0,-1,-2,2,6,-3
16:29:25.211887,-5,-1,-1,-2,2,-4,-4,-1
16:29:25.226878,-10,-4,-1,-2,-3,-4,-8,-10
16:29:25.227875,0,-3,1,2,6,-2,-11,2
16:29:25.241869,0,1,1,1,-1,-1,-1,8
16:29:25.242868,-1,-2,1,2,1,13,34,9
16:29:25.256859,-2,0,-2,-1,1,5,5,1
16:29:25.264855,0,-4,-2,-4,0,2,21,19
16:29:25.279843,-2,-4,-3,-4,-3,-4,-2,-8
16:29:25.294836,2,2,2,0,1,-2,-1,-2
16:29:25.301832,-3,-2,-3,1,1,5,7,-6
16:29:25.309827,-9,-5,-2,-3,-3,-4,-4,-2
16:29:25.316823,4,-1,-2,-1,-1,-4,8,-1
16:29:25.324820,-5,-4,2,2,6,2,-5,3
16:29:25.339805,0,-3,2,-5,-3,-2,-1,-3
16:29:25.346801,3,-1,-1,0,3,2,-17,7
16:29:25.361794,1,0,0,2,-2,1,15,0
16:29:25.369790,-1,1,-1,-2,0,1,0,-4
16:29:25.384778,2,0,-1,-2,-1,2,8,12
16:29:25.384778,-10,-3,-3,1,1,-1,-3,-3
16:29:25.399772,1,1,-1,-1,-2,-1,-1,6
16:29:25.406766,-14,-8,-6,-5,-3,3,-13,-18
