timestamp,emg1,emg2,emg3,emg4,emg5,emg6,emg7,emg8
14:49:32.870990,0,0,-3,0,1,-2,-2,1
14:49:32.885980,0,-2,-1,-5,-7,-4,1,-4
14:49:32.886980,-3,0,-1,0,-2,-2,0,0
14:49:32.900969,-2,1,-1,-4,2,0,-4,-1
14:49:32.908963,-1,1,-4,-3,0,5,0,0
14:49:32.923955,0,-4,-4,1,2,-3,-4,0
14:49:32.930950,0,-4,-2,7,3,-1,1,0
14:49:32.945941,-2,-2,-1,-15,-22,1,-1,-1
14:49:32.945941,-4,-2,-1,3,2,-2,-2,1
14:49:32.960932,-1,-2,-3,-6,1,3,-3,-3
14:49:32.967926,2,2,1,4,-10,-2,-4,0
14:49:32.982920,-3,1,-2,0,5,-1,-3,-6
14:49:32.990913,0,-1,2,-2,3,0,-1,-2
14:49:33.005904,5,0,-2,2,3,-1,0,0
14:49:33.006904,0,0,1,-5,-1,2,0,0
14:49:33.020895,-4,-4,3,5,2,4,-1,-1
14:49:33.035885,-2,1,-1,-2,-2,-5,-2,-4
14:49:33.043881,0,1,-1,1,1,1,1,-1
14:49:33.050876,-4,2,2,-18,-26,-2,-7,-6
14:49:33.065867,-1,1,-1,4,4,-3,-8,-3
14:49:33.065867,-2,0,-2,0,-3,1,2,0
14:49:33.080857,-2,-3,-1,-5,1,-1,0,-2
14:49:33.087854,-4,-1,1,-3,-7,-4,1,-2
14:49:33.102846,-1,-2,0,0,0,1,-3,0
14:49:33.110841,-2,-3,0,3,-1,-3,-5,-3
14:49:33.125828,2,1,0,1,0,3,-2,3
14:49:33.126829,2,0,0,-1,1,0,1,-2
14:49:33.141823,-4,0,-2,0,-4,0,-2,-1
14:49:33.148814,-1,-1,-1,-16,-5,0,-2,-2
14:49:33.163806,-6,-4,-5,6,10,0,1,-4
14:49:33.170803,-3,1,-3,-1,0,-2,-4,-1
14:49:33.185794,1,1,-1,-3,-3,-3,-3,-1
14:49:33.186791,-3,-1,-1,-3,-6,1,4,-2
14:49:33.201784,3,-2,-1,0,0,-1,-1,2
14:49:33.208781,5,0,-1,1,-4,-6,1,8
14:49:33.224771,5,0,-1,-2,-2,-6,1,3
14:49:33.230767,3,-1,-2,1,1,-4,-3,2
14:49:33.245757,0,-4,-2,1,-1,-1,0,-1
14:49:33.246754,-3,0,-1,2,-1,-4,0,1
14:49:33.261744,0,-3,1,0,-2,-2,0,-3
14:49:33.268743,-2,-2,1,-1,2,-2,-4,1
14:49:33.283731,-3,-4,-2,8,12,0,0,-2
14:49:33.291727,4,-2,-2,4,11,0,3,5
14:49:33.306717,1,-2,-2,2,-1,-5,-2,0
14:49:33.313727,-1,-1,-4,1,5,2,2,-1
14:49:33.327706,-2,0,-1,-2,-2,4,-1,3
14:49:33.328710,-1,-3,0,-3,-4,1,1,-1
14:49:33.343708,1,-3,0,1,1,2,5,-1
14:49:33.358685,10,3,0,-2,1,-2,2,0
14:49:33.365680,-1,-3,-1,5,2,2,3,1
14:49:33.373685,0,-3,-2,4,1,-1,-2,-1
14:49:33.387689,-4,-1,-1,0,0,-1,0,-2
14:49:33.388665,-6,-2,-1,-5,-7,-3,-4,-2
14:49:33.403663,0,1,0,-16,-5,2,3,1
14:49:33.410653,0,-3,0,8,9,-4,-3,0
14:49:33.425647,-5,-1,-2,-2,0,1,1,-1
14:49:33.433648,0,0,3,1,0,1,2,1
14:49:33.455627,-2,-4,0,0,-2,0,-2,-1
14:49:33.457625,-3,-1,-1,-6,-4,1,0,-4
14:49:33.463622,-1,-1,1,9,1,0,-1,-3
14:49:33.471618,-5,-4,-2,-1,-2,-3,0,0
14:49:33.486605,-3,-2,-1,-3,1,3,-1,-4
14:49:33.493604,3,-1,-3,-6,-6,0,5,3
14:49:33.508592,1,-3,-1,0,3,-4,-5,-4
14:49:33.509593,-1,1,-3,-20,-23,-5,2,-3
14:49:33.524582,-2,-2,-1,6,8,0,-1,0
14:49:33.531579,-3,-1,-1,-2,5,-1,0,-1
14:49:33.546571,-3,-1,-3,0,2,-1,-3,-2
14:49:33.553566,1,0,2,-1,1,-1,-1,-1
14:49:33.568558,-1,-3,-1,-5,-6,-3,0,2
14:49:33.569554,-3,-1,-3,-2,-1,2,1,-2
14:49:33.583548,-6,-1,-3,-3,2,1,-3,-3
14:49:33.591544,-4,2,-3,-1,-2,-3,-1,-1
14:49:33.606531,-5,-1,0,6,12,-2,-3,-6
14:49:33.613529,1,-4,-3,4,7,-2,-1,2
14:49:33.628520,-3,0,-2,-2,-1,-3,-5,-1
14:49:33.629518,1,-3,1,1,3,1,0,1
14:49:33.643511,2,1,-1,0,-5,0,1,-1
14:49:33.651504,0,-1,-1,0,0,-1,-1,2
14:49:33.666499,3,-1,1,-5,-2,-3,-1,-1
14:49:33.673493,0,-3,-3,1,2,1,-1,1
14:49:33.688479,-9,-5,-1,-6,-4,-7,0,0
14:49:33.689480,0,2,0,0,-10,-1,-1,-5
14:49:33.703474,-1,-2,-1,-15,-14,-8,-4,1
14:49:33.711470,-3,-3,0,6,11,1,1,-1
14:49:33.726460,0,0,-1,-1,3,1,-1,1
14:49:33.733455,-4,-4,-3,-2,-1,6,1,-1
14:49:33.748445,1,2,-1,3,0,-4,1,1
14:49:33.749442,1,-2,-2,-1,-1,1,-3,0
14:49:33.763436,0,0,2,2,-4,1,-1,-2
14:49:33.770433,-1,-2,3,-2,-3,-2,-4,0
14:49:33.786422,-1,3,0,7,1,4,1,-1
14:49:33.793418,0,-2,-1,7,-5,-2,2,-1
14:49:33.808409,0,-1,-1,-20,-23,-4,-1,1
14:49:33.809407,-1,1,0,3,5,-5,-3,0
14:49:33.824399,-1,2,1,3,0,-1,0,-2
14:49:33.831395,-2,-1,-1,-1,-2,0,-2,0
14:49:33.846382,-3,-1,-1,-4,-4,1,-2,4
14:49:33.853380,-3,0,-3,3,-1,0,-1,-1
14:49:33.868368,-1,0,-2,1,4,-1,-1,-5
14:49:33.869370,-4,-5,1,1,-5,-5,-4,-2
14:49:33.883361,2,0,4,7,-3,0,-1,-1
14:49:33.892354,9,-3,-2,-17,-23,2,2,-1
14:49:33.908344,-2,-4,-1,4,5,-2,-7,-6
14:49:33.913343,2,0,-5,-3,-2,-3,1,-1
14:49:33.928333,1,0,2,-1,-1,1,-4,0
14:49:33.929333,1,-1,-3,-4,-6,-3,-4,-1
14:49:33.943325,-5,0,-4,2,4,-3,-4,-4
14:49:33.951319,3,1,1,12,18,-2,1,2
14:49:33.966308,0,2,0,1,-8,0,-1,-1
14:49:33.974303,0,-2,3,8,7,-3,-2,-1
14:49:33.988297,-4,-3,-3,-1,2,0,1,-3
14:49:33.989296,-7,-2,-1,-4,-3,-5,-5,-2
14:49:34.003287,-2,-1,3,-1,-1,1,1,1
14:49:34.011282,0,1,-1,1,4,-3,1,-2
14:49:34.026273,0,0,0,-5,-9,-3,3,2
14:49:34.033269,-5,-2,-1,0,-1,0,-1,-2
14:49:34.048259,-2,-2,0,12,17,5,3,-1
14:49:34.049256,2,0,-1,-3,-16,-3,-1,0
14:49:34.063250,-1,2,-3,2,3,0,-2,-1
14:49:34.079239,5,4,1,8,3,-3,0,5
14:49:34.086236,-2,-1,-4,-1,0,-1,-3,-2
14:49:34.094232,-3,0,4,2,-1,-1,0,1
14:49:34.108222,-1,-2,-1,-6,-5,-1,0,-1
14:49:34.116218,2,0,-2,2,2,0,0,1
14:49:34.131205,6,1,2,-3,-4,-6,-3,1
14:49:34.132208,4,0,1,-12,-13,-1,-3,0
14:49:34.146199,0,-1,0,5,0,-2,-1,-2
14:49:34.153194,-1,-3,-3,-3,0,-3,-2,-4
14:49:34.168186,1,-2,-2,-2,-2,-4,-1,-1
14:49:34.169182,-3,0,0,-3,-3,0,-2,-3
14:49:34.184175,-4,0,-1,-2,1,1,0,-4
14:49:34.191169,-2,1,0,0,-1,3,0,2
14:49:34.207160,-6,-3,-3,-1,-1,-1,-3,1
14:49:34.214155,-3,-2,3,11,8,2,1,1
14:49:34.228148,-2,3,-2,-18,-33,-3,-1,0
14:49:34.229145,2,1,-1,1,6,-1,0,0
14:49:34.252131,1,0,-1,-2,1,0,0,1
14:49:34.252131,-1,-2,1,-1,2,3,-1,-1
14:49:34.266124,-6,-5,-1,-3,-6,-4,-2,-5
14:49:34.275120,1,-3,0,-1,-8,1,-1,-2
14:49:34.289110,0,-1,4,6,6,1,-1,-2
14:49:34.296105,0,-2,1,-27,-29,-2,2,-3
14:49:34.311096,-4,-3,-1,8,2,1,2,-1
14:49:34.312098,-1,1,7,2,-5,-1,0,2
14:49:34.326087,0,-2,-17,0,0,-2,1,0
14:49:34.333083,-3,0,4,15,-8,-5,-2,-3
14:49:34.349075,-2,-2,-3,-18,-25,-6,-3,-3
14:49:34.357067,-2,-3,-7,6,17,1,-2,-3
14:49:34.371059,-1,0,1,-6,10,2,-1,0
14:49:34.372058,-2,-3,-10,0,-5,-3,2,0
14:49:34.386050,1,-1,8,7,4,1,0,0
14:49:34.394042,4,6,33,-8,35,4,4,3
14:49:34.409033,0,-2,-18,0,26,4,-2,0
14:49:34.416031,2,4,19,-8,-63,-10,2,0
14:49:34.431022,-4,-7,-32,-36,4,0,0,-1
14:49:34.431022,2,10,5,-9,52,13,5,2
14:49:34.446013,2,6,5,-81,-38,-3,3,2
14:49:34.453008,-9,-18,-64,-116,-128,-27,-6,0
14:49:34.468996,-6,-4,-28,-46,-47,3,-1,-5
14:49:34.475994,0,1,30,72,127,34,1,0
14:49:34.491982,-2,7,20,8,35,36,-3,1
14:49:34.491982,10,6,-18,-47,-101,-26,8,11
14:49:34.506973,-3,13,127,127,127,31,2,-4
14:49:34.513971,10,4,-61,-128,-7,36,9,10
14:49:34.528959,16,17,53,-3,-128,12,14,13
14:49:34.535957,17,29,76,-115,79,95,17,14
14:49:34.550948,6,-16,-99,-128,127,0,16,11
14:49:34.551947,-24,-26,-14,65,-128,-60,-43,-20
14:49:34.565939,38,20,-102,-128,-128,-45,33,39
14:49:34.574930,-41,-60,52,9,-119,0,-17,-29
14:49:34.588923,-6,19,35,-128,-128,-103,-4,-16
14:49:34.595920,-31,-37,-128,127,17,-128,-36,-30
14:49:34.610911,-11,-48,15,127,127,54,-2,-1
14:49:34.611908,23,53,22,127,-128,54,23,16
14:49:34.626901,-44,-50,-7,-4,127,-100,-48,-41
14:49:34.633893,9,10,-25,-13,95,50,11,10
14:49:34.648884,7,37,21,-128,-128,17,5,1
14:49:34.655882,-16,-26,-35,127,-39,-29,-15,-14
14:49:34.670874,7,-15,23,127,127,55,12,6
14:49:34.678869,19,27,7,-99,-36,-10,7,10
14:49:34.685864,-4,4,-17,-89,-128,-22,-5,-9
14:49:34.700855,-10,-33,-64,-128,-128,2,-3,2
14:49:34.708850,-9,5,-4,-128,29,-10,-5,-11
14:49:34.715846,-50,-92,-57,-128,-128,-128,-40,-31
14:49:34.730836,27,55,57,127,127,72,16,5
14:49:34.738828,-4,-72,-41,12,127,13,-4,3
14:49:34.745827,45,123,91,127,127,85,28,26
14:49:34.753820,41,70,24,-128,55,87,29,21
14:49:34.768813,-99,-128,-55,127,-128,100,-32,-48
14:49:34.775812,13,0,2,127,111,76,1,5
14:49:34.791797,46,81,80,-128,-128,-128,-14,11
14:49:34.798793,0,33,-30,-128,-128,-125,-16,-13
14:49:34.805789,25,127,127,-128,-128,-128,-13,-6
14:49:34.813785,-49,-121,-128,127,127,65,-10,-8
14:49:34.828776,70,127,82,-128,-128,-128,10,36
14:49:34.835771,-54,-119,-60,-77,-128,-128,-29,-23
14:49:34.850762,7,14,-28,127,127,99,6,0
14:49:34.858754,10,32,2,-109,-128,-118,-2,3
14:49:34.865752,-2,16,20,-50,86,63,5,1
14:49:34.874744,-22,-73,-90,-90,-128,-76,-6,-6
14:49:34.888735,3,6,7,19,84,21,-1,2
14:49:34.895737,24,45,27,127,-35,28,13,12
14:49:34.910724,15,54,77,-11,127,38,1,6
14:49:34.918719,1,-8,-11,-128,-48,60,6,5
14:49:34.925715,-15,-40,-68,-128,-128,-67,-11,-4
14:49:34.933711,12,35,28,-124,-128,-38,-1,2
14:49:34.948701,-20,-30,-7,102,81,64,-5,-10
14:49:34.955694,3,1,-8,6,-128,-50,-5,2
14:49:34.971684,3,-18,7,0,127,11,6,6
14:49:34.978682,18,38,14,-128,-91,-22,4,7
14:49:34.985680,-22,-44,-42,112,127,38,-2,-8
14:49:34.993673,13,32,37,-45,-36,-5,2,5
14:49:35.008665,-7,-15,-35,-68,-128,-22,-6,-1
14:49:35.015658,8,13,23,127,127,72,11,4
14:49:35.030649,7,16,-13,-128,85,-40,-4,1
14:49:35.038645,-4,-8,-31,98,-73,38,-1,-6
14:49:35.045639,7,14,-5,-128,6,32,2,2
14:49:35.053636,23,41,64,127,127,21,11,14
14:49:35.068627,10,2,-19,-128,68,-17,0,5
14:49:35.076620,-21,-33,-33,-102,-111,-29,-13,-10
14:49:35.091611,2,-1,-17,-128,-128,-34,-4,1
14:49:35.091611,-15,-11,2,97,10,35,-8,-12
14:49:35.113599,0,-17,-33,-59,-128,61,3,1
14:49:35.113599,16,42,64,127,-85,-12,1,2
14:49:35.128589,7,3,-18,-101,41,39,5,7
14:49:35.135582,2,-5,24,83,-90,27,10,3
14:49:35.150575,0,23,22,48,85,35,-5,-4
14:49:35.151573,4,4,-28,-128,-128,-16,1,3
14:49:35.166567,6,12,17,44,68,1,1,5
14:49:35.174559,1,8,10,127,-128,-32,-2,2
14:49:35.188552,-5,-21,-33,-37,-128,-16,-8,-2
14:49:35.196547,11,19,-33,-128,-128,-50,-1,3
14:49:35.211538,-22,-29,-11,7,-67,-6,-11,-16
14:49:35.218534,4,9,6,-88,-128,-37,-1,-4
14:49:35.233525,-2,-3,-18,-75,127,41,-4,-1
14:49:35.234523,-20,-28,-10,-98,-128,-75,-13,-9
14:49:35.248515,8,13,34,98,127,18,4,6
14:49:35.255510,20,28,-4,-62,-128,-58,2,11
14:49:35.271500,-30,-51,-22,45,-100,71,-9,-16
14:49:35.278497,5,11,17,34,-128,-47,-5,2
14:49:35.293488,-2,0,-3,-1,25,-13,-4,-3
14:49:35.294484,10,22,17,-128,-128,-55,1,4
14:49:35.308478,-3,-3,-15,-128,-57,19,-3,-3
14:49:35.316474,-4,-1,-2,-44,-98,-16,-2,-1
14:49:35.331464,0,0,8,52,15,-3,2,1
14:49:35.338459,3,2,-5,-11,34,-5,3,-2
14:49:35.353450,0,-3,1,15,9,10,2,-1
14:49:35.354449,-4,-3,3,66,114,42,2,-3
14:49:35.368442,-12,-2,-3,-16,-40,-9,-7,-7
14:49:35.376437,1,2,1,-5,-19,0,2,3
14:49:35.391427,4,-2,0,0,-6,-7,7,6
14:49:35.398422,4,10,1,8,11,14,-22,24
14:49:35.413413,-9,-12,-10,-10,-16,-19,9,-27
14:49:35.414413,5,-6,7,10,19,29,99,51
14:49:35.428403,-7,-4,-4,-19,-15,-38,-128,-45
14:49:35.436399,-49,14,11,2,-50,-23,10,-5
14:49:35.451390,-6,-13,-6,-5,-8,-26,-117,40
14:49:35.458383,2,-1,-6,-16,18,22,60,27
14:49:35.474373,49,-4,3,1,1,-11,85,104
14:49:35.474373,76,-3,-9,-9,-12,2,120,-10
14:49:35.488367,-128,-7,9,11,4,-11,127,5
14:49:35.496360,59,-21,-5,-35,-59,43,-55,72
14:49:35.511349,-5,50,19,34,49,2,127,-22
14:49:35.518348,-16,-21,9,-16,-26,-23,77,-49
14:49:35.533336,31,26,21,116,70,-11,57,40
14:49:35.534338,25,2,-10,-37,-37,30,48,27
14:49:35.548329,76,-14,-59,-128,-128,-104,-30,-10
14:49:35.556325,-43,-35,28,82,127,52,-8,-23
14:49:35.571315,28,-63,-6,-68,-56,16,80,88
14:49:35.578310,-22,31,-10,98,-1,-44,-15,-17
14:49:35.593302,-128,11,-1,46,-27,-74,127,-30
14:49:35.594298,-37,-30,-32,-16,49,-22,11,-23
14:49:35.608289,-40,-20,29,36,-18,17,32,-19
14:49:35.616284,-18,18,-22,-128,-128,-1,6,-4
14:49:35.631278,-55,-29,32,99,10,-48,-78,-29
14:49:35.638273,-72,-16,-15,-128,80,57,-67,-11
14:49:35.653264,-20,-6,-18,-54,-73,-72,-52,-31
14:49:35.654262,110,-44,8,16,-12,45,-10,127
14:49:35.668252,-7,9,19,-101,-128,-43,15,-33
14:49:35.676250,-14,-12,-26,13,127,23,-77,-6
14:49:35.691238,12,-1,0,9,58,18,80,10
14:49:35.698236,-27,-22,-12,28,39,-9,15,-20
14:49:35.713227,63,8,-6,2,-32,-27,31,67
14:49:35.714225,-21,2,-19,-93,9,30,-31,-31
14:49:35.728217,-9,22,8,-109,63,-38,18,-29
14:49:35.736210,4,0,-15,-31,-50,-42,17,-18
14:49:35.751201,-18,-10,3,81,127,-9,-10,-21
14:49:35.759197,-14,-27,-39,-21,31,-7,-19,-8
14:49:35.774187,24,13,7,5,13,41,20,32
14:49:35.775186,-39,-8,-28,-111,-39,-39,-40,-50
14:49:35.788179,22,-12,5,-31,22,-2,-5,-11
14:49:35.796176,-6,-7,7,24,-40,-3,-21,-4
14:49:35.811166,-40,-17,-23,67,8,12,17,-33
14:49:35.818162,7,11,-45,-128,-128,-48,9,5
14:49:35.833152,-62,-32,-2,41,127,-23,-128,-60
14:49:35.834149,-4,-23,-14,-26,-37,-51,16,49
14:49:35.848143,6,7,22,23,-52,4,-5,-16
14:49:35.857136,-11,-4,-11,-59,-74,33,71,-8
14:49:35.871129,0,-6,-27,-8,-3,-10,7,0
14:49:35.879121,17,-12,-27,-104,-128,4,-26,9
14:49:35.894113,34,3,14,25,22,-26,5,13
14:49:35.894113,127,31,22,27,-22,24,-17,119
14:49:35.909102,-16,0,-14,-10,-59,-27,2,-10
14:49:35.916101,8,-16,-2,5,-12,-7,-20,15
14:49:35.931092,5,3,4,-29,74,11,5,-4
14:49:35.938086,3,1,-13,59,98,22,4,0
14:49:35.953078,-5,-7,4,-44,-88,-32,20,-9
14:49:35.954075,10,4,2,20,88,54,17,28
14:49:35.969068,-14,5,22,1,8,15,-10,-1
14:49:35.976064,8,4,-16,-79,-96,-62,-21,-11
14:49:35.991052,-17,-3,-16,-13,-21,13,5,-15
14:49:35.999053,-22,-5,10,56,27,-13,-21,-23
14:49:36.014037,-1,2,-35,-69,-128,0,7,7
14:49:36.014037,9,4,-1,29,64,21,13,6
14:49:36.029034,-11,-1,-6,-117,-128,-17,0,-7
14:49:36.036027,15,4,9,39,77,15,7,15
14:49:36.051017,9,-4,-24,-56,3,-3,-10,8
14:49:36.059012,-1,7,12,-20,-32,3,15,-13
14:49:36.075001,-22,-6,-17,31,100,1,7,-16
14:49:36.075001,5,1,2,79,89,-3,-7,-13
14:49:36.088991,-14,-7,-15,-17,16,-4,-9,-17
14:49:36.095989,17,5,11,-10,-1,7,-12,-1
14:49:36.110980,3,9,6,18,6,-5,-6,-5
14:49:36.117976,-7,-5,1,62,127,1,-2,-7
14:49:36.133963,-7,-2,-7,-82,10,6,10,-8
14:49:36.140960,-4,2,-5,-69,-40,2,3,-6
14:49:36.157949,-24,-6,-3,8,-1,-21,-16,-17
14:49:36.157949,-13,-7,-8,2,0,-1,-8,-20
14:49:36.178935,1,6,2,-6,-10,11,0,2
14:49:36.178935,-3,-4,3,17,-7,-7,2,-2
14:49:36.193929,-8,-10,8,10,10,-2,-11,2
14:49:36.200924,-5,7,-14,-98,-128,-6,50,-7
14:49:36.215915,7,12,-4,-5,-10,-17,-1,-7
14:49:36.216913,-19,4,8,13,39,6,2,-20
14:49:36.230906,3,6,0,21,49,-3,3,0
14:49:36.238900,2,-6,-22,-12,55,-1,4,-4
14:49:36.253892,2,-5,7,23,37,-1,-1,9
14:49:36.260887,-6,7,1,31,24,10,2,-3
14:49:36.275878,0,3,-4,-23,-9,-2,1,8
14:49:36.276875,-21,5,5,12,14,7,14,-19
14:49:36.291865,-8,4,10,-1,30,7,2,3
14:49:36.298864,-7,-13,-11,6,28,3,0,-4
14:49:36.313854,4,4,0,7,-11,-9,-1,0
14:49:36.320850,-2,0,-2,3,10,10,-1,-1
14:49:36.335841,-3,1,6,-12,1,-6,-3,-3
14:49:36.336839,-20,-21,-10,36,76,-5,-6,-6
14:49:36.350831,-7,4,5,5,24,2,8,7
14:49:36.358828,-4,6,13,7,7,6,12,2
14:49:36.374815,-9,-7,-11,10,-4,-19,-4,-17
14:49:36.388808,2,6,9,77,1,5,3,6
14:49:36.395803,-9,-11,-8,19,-18,-8,0,-10
14:49:36.396800,4,4,0,-88,-24,-3,8,8
14:49:36.410794,-8,-8,1,26,62,-3,-11,-13
14:49:36.418789,-16,7,-15,-17,-29,4,6,-4
14:49:36.433780,-14,-5,-4,-5,49,-19,-21,-23
14:49:36.441773,7,4,4,1,6,10,13,6
14:49:36.457763,-7,-5,-11,18,1,-1,-2,-5
14:49:36.457763,-2,-1,5,27,-68,-15,3,-7
14:49:36.470756,0,-4,-10,5,-2,-2,-5,-1
14:49:36.478752,-1,-1,-1,-26,-28,2,-3,-5
14:49:36.493743,20,-5,0,13,20,2,2,21
14:49:36.500739,-4,0,13,23,2,0,1,-4
14:49:36.515729,-1,4,-8,-19,-3,1,3,6
14:49:36.516727,26,8,5,7,-3,11,18,20
14:49:36.531720,-10,-3,4,-128,-72,-10,0,6
14:49:36.538711,-8,-12,0,18,-128,-11,-7,-11
14:49:36.553706,-12,-4,-1,0,41,6,-7,-8
14:49:36.561698,-1,4,4,-1,12,-5,0,-2
14:49:36.575692,-7,-3,-6,-10,-18,-5,0,0
14:49:36.576689,-18,2,1,-4,-4,0,-37,-11
14:49:36.591680,-5,-1,9,74,-4,4,9,0
14:49:36.598677,-9,-8,-9,13,-22,-17,3,-4
14:49:36.613669,-7,-3,-4,-3,28,1,-1,-3
14:49:36.620664,4,4,-13,-121,-82,2,6,4
14:49:36.635653,-6,-6,-4,11,33,-5,-11,-13
14:49:36.636654,26,8,3,12,5,3,13,13
14:49:36.650646,-16,7,4,15,-46,-14,-3,-6
14:49:36.658638,-4,-5,1,12,3,7,15,2
14:49:36.673628,-2,1,1,-3,9,3,2,0
14:49:36.680624,-1,1,0,11,16,-3,-4,0
14:49:36.703612,-2,-1,-3,-7,1,-2,-1,-1
14:49:36.703612,3,0,1,5,-13,-1,-3,2
14:49:36.711607,-3,-3,-3,-63,-22,-3,-4,-1
14:49:36.718601,0,1,-5,28,26,13,3,-2
14:49:36.733594,-4,-13,-1,12,61,-5,-5,5
14:49:36.741587,12,3,0,-1,11,4,9,31
14:49:36.756577,-1,2,-1,-7,-13,-11,-8,-4
14:49:36.757578,10,1,1,-25,-14,12,9,3
14:49:36.771570,-2,-1,3,5,-22,1,-1,-2
14:49:36.778566,-5,-7,-4,-38,13,1,-4,-6
14:49:36.801549,1,-1,1,8,11,-3,-3,-2
14:49:36.801549,-1,0,-1,-45,-40,-6,-3,-1
14:49:36.816539,-4,-5,-2,18,43,2,2,-1
14:49:36.816539,2,-7,-3,5,11,-6,-11,-9
14:49:36.831530,2,0,0,-4,0,3,1,5
14:49:36.838528,13,-1,-1,-1,-4,-6,-11,-5
14:49:36.853520,-7,-5,-2,-36,-16,1,1,-2
14:49:36.861513,-1,0,-4,1,2,-1,1,1
14:49:36.876503,-4,0,1,-17,-23,-3,-2,-3
14:49:36.876503,-1,-4,-2,7,-5,-11,-16,-3
14:49:36.891495,0,0,-3,-15,1,-4,0,-5
14:49:36.898492,0,3,-1,0,-3,-2,-1,-1
14:49:36.913482,-2,-3,0,-3,-4,-2,-1,-3
14:49:36.920478,-2,0,-3,-4,-2,-3,-1,-1
14:49:36.936468,-4,0,-1,-1,2,6,4,-3
14:49:36.936468,-2,-2,1,0,-2,0,2,6
14:49:36.958455,-5,0,-1,-3,-2,-1,-16,-5
14:49:36.959452,1,2,-3,-29,-26,-2,1,1
14:49:36.974445,3,2,1,28,24,13,12,7
14:49:36.981440,-1,-4,-2,-12,-8,2,2,2
14:49:36.996428,-1,-3,-2,-6,-48,-4,-4,-4
14:49:36.996428,-1,-3,0,0,29,1,-3,0
14:49:37.011422,3,-1,1,-3,-1,-2,1,3
14:49:37.018418,-5,-3,-2,-3,-4,-6,-4,-2
14:49:37.033408,10,1,0,-1,-3,-3,1,17
14:49:37.041404,-3,-2,-1,-2,-2,1,5,-4
14:49:37.057391,5,-1,-1,-2,-3,-2,-3,-1
14:49:37.058393,0,-3,-4,-24,-16,-3,-1,-9
14:49:37.071382,-6,-2,-4,0,2,-7,-4,-4
14:49:37.078377,-2,-3,-2,11,16,2,-2,-3
14:49:37.093372,2,-2,-3,-9,-5,2,1,2
14:49:37.101365,0,-2,1,-3,-2,2,-1,1
14:49:37.116357,0,-2,0,-1,-1,-4,0,-2
14:49:37.124350,15,4,2,-4,-2,-4,-3,1
14:49:37.138343,0,-4,0,-2,-4,-2,-1,-4
14:49:37.139341,-5,0,-1,2,0,0,-7,-4
14:49:37.153334,-2,-6,1,0,2,-3,-1,-2
14:49:37.161329,4,0,-1,-10,-4,-1,3,2
14:49:37.176320,-4,-1,1,-25,-37,-5,-3,-7
14:49:37.183315,1,-1,-1,6,13,-4,-9,-7
14:49:37.198305,13,1,1,-2,1,3,8,18
14:49:37.199304,-3,0,1,-3,-1,-1,1,-4
14:49:37.213296,-3,-5,-1,-1,2,-1,-4,1
14:49:37.221292,0,-2,-1,-1,-1,-6,-2,-2
14:49:37.236282,1,2,-3,0,1,0,1,-1
14:49:37.243278,-1,-2,-2,-4,-12,-4,-3,-3
14:49:37.258267,0,2,0,-1,3,2,1,-1
14:49:37.259268,1,1,-1,7,-3,-6,-16,-1
14:49:37.274257,-5,-3,-1,1,0,-5,1,0
14:49:37.281254,8,1,-1,6,12,4,5,12
14:49:37.296245,0,-1,1,0,0,4,-9,-3
14:49:37.303241,1,1,-2,-4,-6,2,-1,-1
14:49:37.318231,1,2,2,0,4,1,1,1
14:49:37.319228,-2,0,0,0,-1,-3,-3,-4
14:49:37.334219,-9,0,-1,-3,-2,-1,-3,-12
14:49:37.341215,-2,0,-1,-9,-4,-1,1,-5
14:49:37.357205,-1,0,-1,-9,-4,-1,1,0
14:49:37.363204,1,1,0,-3,0,2,2,-1
14:49:37.378194,-1,2,-1,15,18,-1,-9,1
14:49:37.379194,0,-2,1,0,10,4,3,3
14:49:37.394182,-3,0,1,1,1,0,-2,-2
14:49:37.401180,-2,-2,-3,-3,-8,0,3,0
14:49:37.416171,2,-2,0,1,4,-2,3,4
14:49:37.424164,-5,-1,-2,-4,-6,-2,-4,-2
14:49:37.438157,2,-2,1,-1,1,2,5,2
14:49:37.439154,-1,-1,-1,-2,-6,0,4,0
14:49:37.453146,2,-1,-4,-16,7,-1,-1,-4
14:49:37.461143,-6,-4,-3,15,30,4,5,-5
14:49:37.476134,-6,-3,-2,-6,-2,4,7,11
14:49:37.483128,0,-1,-2,-2,-4,-3,0,4
14:49:37.499118,-3,0,-1,-4,-6,1,-4,-4
14:49:37.499118,-6,-3,-1,1,1,-1,0,-7
14:49:37.514111,-1,1,0,1,-3,2,1,-3
14:49:37.521105,1,-1,0,-2,-3,2,2,1
14:49:37.536096,-1,1,-1,0,-7,5,1,0
14:49:37.544089,0,1,0,-2,-2,-6,-2,-3
14:49:37.560080,0,-3,-5,-19,-20,2,-2,3
14:49:37.560080,-3,-1,-2,-5,-1,-6,-9,-4
14:49:37.575070,0,1,-2,21,7,-7,0,0
14:49:37.581068,-3,-2,-4,-3,0,-3,-14,-1
14:49:37.596059,0,-3,-1,-4,-1,-2,2,-2
14:49:37.603056,-1,-3,-1,0,-11,-4,-1,0
14:49:37.618044,8,0,0,-1,-4,0,2,2
14:49:37.619045,-1,-2,-1,-4,-4,3,-3,-4
14:49:37.634035,-1,0,2,-2,6,3,1,0
14:49:37.641030,2,1,0,-5,-2,0,-1,4
14:49:37.657019,-3,3,0,3,1,1,3,0
14:49:37.664018,-8,0,-5,-5,-12,-9,-1,-7
14:49:37.679005,0,1,-2,-3,1,-2,-3,-3
14:49:37.679005,2,1,3,0,4,2,5,2
14:49:37.693996,-3,0,-3,2,-2,-5,1,0
14:49:37.700994,0,-2,-1,7,11,1,-3,-5
14:49:37.715985,1,2,1,0,3,7,4,1
14:49:37.723978,0,-2,-2,0,-5,-4,-3,0
14:49:37.737970,0,1,-3,-3,-1,1,0,0
14:49:37.738969,0,2,-1,1,-3,-3,1,-1
14:49:37.753959,-6,-1,-2,-1,1,-1,-2,1
14:49:37.760957,0,-4,-4,-1,5,-3,-2,-2
14:49:37.775947,-5,-1,-3,-1,-5,-3,-3,-1
14:49:37.783940,0,-3,-3,3,1,-1,-1,0
14:49:37.798930,-2,2,1,1,-36,-4,-2,-3
14:49:37.798930,3,-6,0,1,10,1,2,4
14:49:37.813924,6,0,0,-5,-3,0,1,3
14:49:37.820919,0,2,-1,-4,-5,-4,-3,-3
14:49:37.843903,-1,-1,-1,-1,-6,-5,0,-2
14:49:37.843903,0,-1,1,0,5,2,-1,1
14:49:37.858893,8,0,-1,-3,-1,-3,1,-3
14:49:37.858893,-4,-1,-3,0,-1,-2,-3,-2
14:49:37.874884,0,-3,0,-2,5,12,1,2
14:49:37.880883,0,-1,3,0,0,-2,-1,5
14:49:37.895873,-1,-1,-2,-3,-1,-1,2,2
14:49:37.903868,-1,-2,0,3,-6,-4,-2,-2
14:49:37.918861,1,1,2,1,2,5,0,-2
14:49:37.918861,11,2,0,-3,1,-1,-2,4
14:49:37.933851,-5,1,2,13,18,3,2,-2
14:49:37.941843,8,2,1,-3,5,4,7,13
14:49:37.956833,-2,-1,-1,-4,1,-4,1,-2
14:49:37.963828,2,-1,0,10,4,1,0,1
14:49:37.978821,-2,1,0,-3,-3,2,-2,1
14:49:37.978821,-4,1,-3,-1,-5,0,-1,-3
14:49:37.993813,6,4,4,13,12,3,1,5
14:49:38.000808,2,0,0,2,2,-2,-2,-5
14:49:38.015799,0,1,0,-4,-6,-2,0,1
14:49:38.024791,-2,-2,0,-2,0,-1,-1,-1
14:49:38.038784,0,3,2,10,14,11,4,7
14:49:38.045779,2,-2,0,-15,-25,-3,2,-4
14:49:38.060768,-4,0,-1,4,6,1,1,-3
14:49:38.061770,-1,-2,-1,-2,-5,-4,1,-2
14:49:38.076760,3,-1,0,-3,-7,-1,1,3
14:49:38.083757,-6,0,0,-3,-2,-2,-1,-3
14:49:38.098747,1,-1,-1,0,-1,3,-4,2
14:49:38.105743,-2,-3,-2,-3,-4,-4,-5,-7
14:49:38.120733,-1,-1,0,-4,0,-1,0,-5
14:49:38.121733,-1,0,0,1,-8,-4,-2,0
14:49:38.135724,0,-1,-3,-5,5,-1,-2,-3
14:49:38.143720,-1,-2,-1,14,11,-2,-2,3
14:49:38.158708,-7,-7,-5,0,-1,-1,2,-3
14:49:38.165708,-2,-2,-1,4,2,-1,-1,-3
14:49:38.180697,1,-2,-2,-2,1,1,-1,1
14:49:38.181694,-5,-3,0,-3,-8,2,2,0
14:49:38.195687,-3,-3,0,9,5,-2,0,-1
14:49:38.203682,-2,-1,2,7,10,5,0,0
14:49:38.218673,-2,-4,-4,-3,-5,1,-3,-1
14:49:38.226667,-2,1,0,-1,-3,2,0,0
14:49:38.241660,1,-2,-2,1,0,1,3,0
14:49:38.241660,2,4,-1,2,2,4,1,2
14:49:38.256650,-1,0,-2,-4,2,2,1,2
14:49:38.263645,1,0,0,1,3,0,0,3
14:49:38.278636,-3,-5,-3,1,-1,-2,-1,-1
14:49:38.285630,2,-1,-1,9,9,1,-1,3
14:49:38.300622,-4,-2,-2,-24,-38,-8,0,0
14:49:38.301622,10,1,4,25,13,-2,-1,1
14:49:38.316613,2,0,-9,-8,1,-1,2,-1
14:49:38.324606,2,-6,3,8,1,-2,-3,4
14:49:38.338598,0,4,1,-6,-5,-3,1,2
14:49:38.346591,2,-2,3,1,1,0,-3,3
14:49:38.361583,-5,-1,-1,-1,2,-3,-5,-3
14:49:38.361583,1,-2,-3,0,5,1,2,3
14:49:38.376581,1,0,0,-1,5,6,-1,-1
14:49:38.383571,3,-1,1,4,6,-5,-2,-5
14:49:38.398561,1,1,1,4,9,3,-1,-3
14:49:38.405556,-2,1,-1,0,4,-1,-2,1
14:49:38.420547,-2,0,-1,2,-7,-4,1,0
14:49:38.421547,-5,0,-4,1,1,-4,-4,-1
14:49:38.436538,2,-3,-3,0,7,-4,2,2
14:49:38.443533,-2,-1,1,3,-5,-6,-3,-4
14:49:38.458524,0,-1,-3,-7,-2,-1,-1,1
14:49:38.466519,-2,-4,-1,-17,-28,-4,4,-1
14:49:38.481508,3,-1,-1,10,11,-1,-1,1
14:49:38.481508,-1,-2,0,-5,-2,0,-5,-5
14:49:38.496500,-1,1,1,0,-4,2,2,0
14:49:38.503496,-7,-3,-1,-3,-1,0,0,3
14:49:38.518488,0,1,-1,5,-8,-3,-3,-3
14:49:38.526479,-4,-2,0,2,6,-1,-1,-4
14:49:38.541471,-2,-1,-2,-2,1,4,1,-2
14:49:38.541471,-2,-3,-2,1,-8,-2,-1,-3
14:49:38.556461,-2,-2,2,-1,-3,-2,-1,-1
14:49:38.563459,-2,-1,-3,0,-3,-2,-3,2
14:49:38.578450,0,0,-1,7,18,-1,0,-1
14:49:38.586445,0,-1,3,5,1,1,1,3
14:49:38.601435,-3,-5,-4,2,10,-1,1,-3
14:49:38.601435,-1,-1,-1,-3,1,-2,-3,-2
14:49:38.616426,-1,-2,0,-6,-6,1,-2,-1
14:49:38.624422,4,6,4,6,0,2,2,5
14:49:38.638412,-6,0,-4,10,-3,-8,-6,-7
14:49:38.646408,-1,-1,-1,-2,0,-4,-1,1
14:49:38.662401,-2,2,-3,-9,0,-2,-3,-2
14:49:38.662401,-2,-1,-1,-2,-3,-2,0,-1
14:49:38.676390,-7,-2,0,5,12,1,1,0
14:49:38.683385,-2,0,-4,2,-4,0,-1,-2
14:49:38.698375,0,-3,-2,14,4,0,0,-3
14:49:38.706368,0,-2,1,-2,-5,-3,-3,-1
14:49:38.721359,2,1,0,1,3,4,-1,3
14:49:38.721359,-1,1,0,-6,-11,1,0,-2
14:49:38.736352,0,0,3,-2,1,-1,0,0
14:49:38.743348,1,1,-2,-4,1,0,-2,-1
14:49:38.758338,-7,-2,1,0,-4,-4,-2,-1
14:49:38.766330,1,-1,-2,-23,-35,-5,2,0
14:49:38.781321,0,-2,1,7,5,-4,-6,-6
14:49:38.781321,-1,0,-2,-1,-3,-4,-2,1
14:49:38.796318,-2,-1,0,-4,2,0,0,0
14:49:38.803310,-2,-1,4,4,5,0,-2,-2
14:49:38.818301,1,0,1,2,0,-2,-1,0
14:49:38.826294,5,2,1,-8,1,6,-1,-1
14:49:38.841285,-2,0,1,0,-2,-1,-3,-1
14:49:38.842284,-1,-2,-3,-5,4,3,-2,1
14:49:38.856278,0,-3,-2,2,-1,1,-1,-2
14:49:38.863273,-1,4,2,-2,-1,-3,-1,-3
14:49:38.878263,-1,0,-2,-1,2,-1,-4,0
14:49:38.886257,-4,-3,1,-3,0,-1,-3,-1
14:49:38.901247,-1,3,1,1,4,7,1,-2
14:49:38.901247,-3,-1,-2,-2,1,-1,0,-3
14:49:38.916238,-1,0,0,0,1,0,0,3
14:49:38.924234,0,-2,-3,-4,-4,-5,2,1
14:49:38.939225,-4,0,-2,20,9,1,-1,-2
14:49:38.946222,1,-2,-3,-12,-12,-4,-3,-2
14:49:38.961211,1,0,-2,3,2,-2,-1,-1
14:49:38.962212,2,0,-1,-2,-1,-6,-4,-3
14:49:38.992192,-2,0,-3,-6,-8,-5,-5,1
14:49:38.992192,-3,-3,-2,4,5,2,0,-3
14:49:38.998190,-1,2,0,0,2,2,1,-2
14:49:39.006185,-4,-1,1,-4,-1,-4,-5,-8
14:49:39.021175,4,0,-1,-7,-7,1,-4,-4
14:49:39.028171,10,-1,1,9,0,-4,1,4
14:49:39.043162,-3,-6,-3,-3,-2,-5,-4,-6
14:49:39.044160,1,-2,-1,-3,-1,3,3,-1
14:49:39.059149,1,4,3,13,16,4,-3,0
14:49:39.066148,-1,-2,-1,-13,-26,-3,0,-3
14:49:39.081138,2,1,0,3,9,2,0,2
14:49:39.088135,-4,-3,-1,0,-2,-4,-7,-8
14:49:39.103124,4,0,-1,-1,2,-4,2,1
14:49:39.104124,-1,0,-3,-2,0,1,0,-2
14:49:39.119115,3,1,1,-1,1,2,-3,-3
14:49:39.126111,-3,1,-2,-4,-4,0,0,-2
14:49:39.141102,0,-2,-2,-9,-1,3,3,-1
14:49:39.149095,1,1,1,-11,-20,-3,0,-3
14:49:39.163087,-6,1,-1,3,3,-2,0,-4
14:49:39.164087,-1,-1,0,-3,-4,0,-2,1
14:49:39.179078,-5,-3,-2,-1,-1,0,-3,-1
14:49:39.186073,-2,1,0,0,-2,0,0,-1
14:49:39.201061,-6,-1,-2,-1,-1,-2,0,-1
14:49:39.209059,0,1,0,-2,-2,-3,-2,0
14:49:39.225047,0,-1,1,-1,3,-1,1,1
14:49:39.225047,-4,-2,-6,1,3,-5,-2,-2
14:49:39.239038,-2,-3,-2,-2,-1,-4,-3,-4
14:49:39.246036,5,2,0,1,-1,-1,-3,1
14:49:39.261026,-2,-1,0,0,-4,-3,-2,0
14:49:39.268022,-1,3,-1,-1,0,4,1,-3
14:49:39.284012,8,-2,-2,1,2,-2,-1,4
14:49:39.284012,1,-3,0,2,1,-1,-1,1
14:49:39.299004,-3,-4,0,-2,-2,-3,0,3
14:49:39.305996,-3,-4,-2,-1,-3,-2,-3,0
14:49:39.320989,-1,0,-2,-3,-5,-3,0,-1
14:49:39.328981,-2,0,-2,-1,1,5,0,-2
14:49:39.343972,1,1,3,2,2,0,1,1
14:49:39.343972,-6,-1,-3,0,0,3,2,-4
14:49:39.358966,2,1,0,0,-3,-6,-2,0
14:49:39.365962,-1,-1,-3,-1,3,3,-3,1
14:49:39.380952,0,0,1,0,0,0,-3,-2
14:49:39.388947,2,2,3,1,0,0,0,0
14:49:39.403938,-9,-5,-1,-2,2,-2,-4,1
14:49:39.403938,0,1,1,-1,0,1,1,1
14:49:39.418926,-4,-3,-3,-5,-3,1,-2,-6
14:49:39.425924,0,0,1,5,5,3,4,3
14:49:39.440913,2,-1,1,0,2,-5,-2,2
14:49:39.448907,-3,-2,0,-1,0,0,0,-4
14:49:39.463900,-1,-4,-3,0,-4,-2,1,1
14:49:39.463900,-2,0,-3,-2,-2,0,-1,0
14:49:39.478892,7,-1,1,-1,-3,-3,-3,-4
14:49:39.485887,-2,-2,2,-4,-1,0,-2,1
14:49:39.500878,1,-1,-1,-1,0,-1,-1,0
14:49:39.515869,-2,-2,1,1,-5,-1,-1,-4
14:49:39.524861,4,0,-1,2,2,3,-1,5
14:49:39.524861,1,-1,-2,-2,0,0,-1,-3
14:49:39.538851,-2,0,-1,1,-3,-2,0,-1
14:49:39.545850,-1,1,-1,-3,1,1,-1,-1
14:49:39.560840,-4,-2,-2,1,-3,-4,-2,-4
14:49:39.568836,1,-3,-1,0,-2,-1,1,-2
14:49:39.583825,-1,-2,0,3,-1,1,-1,-1
14:49:39.584823,1,0,1,0,-3,1,-2,-2
14:49:39.598817,0,-2,1,0,-3,0,-2,-2
14:49:39.605810,-2,0,3,-1,-1,-2,0,1
14:49:39.620803,0,0,-2,-2,0,5,2,0
14:49:39.628799,-1,-3,0,-1,-3,0,-1,0
14:49:39.643787,-1,0,2,2,2,2,-3,-2
14:49:39.644789,-2,-1,-3,-1,-4,-1,-2,4
14:49:39.658780,-4,-5,0,-1,-2,-1,1,1
14:49:39.665775,1,0,-1,-3,-4,-1,0,0
14:49:39.680766,3,1,-1,2,-1,-4,-1,-1
14:49:39.688758,-3,0,-1,-2,-3,0,0,1
14:49:39.703752,-5,-1,-2,0,1,-1,-3,-7
14:49:39.703752,3,0,-2,-2,-5,-6,-3,0
14:49:39.718741,-1,-1,0,0,-2,3,-1,3
14:49:39.725738,-1,-2,-1,0,-3,-2,-2,-2
14:49:39.741729,-1,0,-1,1,-2,-2,-2,0
14:49:39.748726,-2,0,0,0,-3,-1,3,1
14:49:39.763712,0,-2,-1,-2,-2,-1,-2,-3
14:49:39.763712,-1,-1,-1,-2,-4,-6,-4,0
14:49:39.786701,0,0,-1,-3,-4,0,-4,-3
14:49:39.786701,1,1,1,-1,-3,-3,3,-1
14:49:39.800693,-5,-3,-3,-1,0,-3,-6,-3
14:49:39.808688,-1,-4,-3,0,0,-3,-2,0
14:49:39.824675,5,1,-2,0,-3,1,1,7
14:49:39.824675,-1,-1,-1,0,-1,0,-2,0
14:49:39.838668,6,-5,-1,-4,-1,-3,0,0
14:49:39.845663,-7,-2,-3,0,2,1,-1,-8
14:49:39.861654,0,1,2,1,4,-5,0,-1
14:49:39.868647,0,-2,-2,-3,-2,-1,-2,-1
14:49:39.883641,0,-2,0,0,-3,-1,2,0
14:49:39.884637,2,2,1,2,1,2,-2,0
14:49:39.898631,2,-1,0,-1,0,-1,-2,-1
14:49:39.905626,-2,-3,-1,0,0,2,1,1
14:49:39.920618,0,0,-2,-2,-3,-4,-3,0
14:49:39.928610,-3,-3,-3,-6,-2,-1,0,-4
14:49:39.943604,1,-2,0,-2,4,5,2,2
14:49:39.950598,0,-3,-2,-1,-2,-2,-2,-3
14:49:39.965587,-1,-2,2,-1,0,0,1,1
14:49:39.966586,12,-1,-3,0,3,1,0,-1
14:49:39.980577,-3,-4,-4,0,-2,-1,1,-1
14:49:39.988572,-2,-1,2,-1,0,0,-2,-1
14:49:40.003569,-2,1,-2,-2,-4,1,-1,-1
14:49:40.010558,-2,2,0,-3,-1,3,0,-1
14:49:40.025550,0,-2,-5,1,-3,-1,0,1
14:49:40.026553,-1,-1,-1,-4,-2,-5,-4,-2
14:49:40.048537,-4,-2,-1,1,-3,1,0,-1
14:49:40.048537,0,-2,-1,-1,-1,0,-2,-2
14:49:40.063527,-4,-1,-4,-2,1,-3,2,-4
14:49:40.070528,3,3,0,-4,0,1,2,0
14:49:40.085518,1,-1,0,2,-3,-3,0,0
14:49:40.086513,-2,-2,-3,-1,-1,1,1,-1
14:49:40.101503,-1,-3,2,-1,1,3,0,1
14:49:40.108501,2,-2,-1,-2,-1,-1,1,-3
14:49:40.124489,2,2,-1,-1,-1,2,-3,-1
14:49:40.131486,7,-1,-2,1,-7,1,0,3
14:49:40.146477,4,-3,2,4,1,3,2,-1
14:49:40.146477,-1,-2,2,-1,1,-1,-5,-3
14:49:40.161468,3,3,3,5,0,-4,1,3
14:49:40.168464,-4,0,1,-3,2,1,0,-1
14:49:40.183455,0,0,3,3,9,4,1,-2
14:49:40.191448,0,-3,0,-4,-3,-3,0,0
14:49:40.206438,-5,-3,-4,0,2,0,4,-1
14:49:40.207439,-1,1,-3,-3,-1,-2,-4,0
14:49:40.221431,0,0,1,-1,2,3,1,-1
14:49:40.228426,-1,-1,-3,0,0,2,2,-1
14:49:40.243418,-1,0,0,-4,1,1,-2,-2
14:49:40.251410,-1,-1,-2,-1,-5,-3,-1,1
14:49:40.266400,-2,-4,-3,-2,-11,-4,-2,-5
14:49:40.266400,-2,-1,-2,-2,6,1,-2,0
14:49:40.281391,-1,-2,-1,-1,-8,-1,-2,-1
14:49:40.288389,0,0,-1,1,-1,4,1,-2
14:49:40.303380,-2,-2,1,0,0,-1,0,2
14:49:40.311375,-4,-4,-3,-6,-1,1,-1,0
14:49:40.326366,-2,-1,-4,0,-1,2,-2,-1
14:49:40.326366,-1,-4,-1,-3,1,0,-3,-4
14:49:40.341357,-3,2,-2,1,-3,-2,-1,2
14:49:40.357344,-3,-2,0,-1,-3,1,-1,-2
14:49:40.363343,-7,0,-1,-2,0,1,-1,-2
14:49:40.371341,-1,0,-1,-2,2,1,-3,-1
14:49:40.386325,-3,1,-1,-2,-8,-3,-4,-2
14:49:40.386325,0,-1,-3,-3,1,0,0,-4
14:49:40.401317,-1,-1,-1,-1,-5,-4,-4,-4
14:49:40.408315,2,1,-1,0,2,1,0,0
14:49:40.431301,0,-3,-2,-3,-6,0,-1,0
14:49:40.438296,1,1,0,-1,4,-6,-1,-1
14:49:40.446288,-1,0,0,0,-4,1,-2,-5
14:49:40.446288,-3,0,-1,-3,-1,0,0,-2
14:49:40.461282,-4,1,-1,-1,6,1,-2,-2
14:49:40.468278,2,4,0,-3,-5,-1,-3,-2
14:49:40.483268,-3,-4,0,-4,0,-1,5,0
14:49:40.491262,0,0,-3,1,0,1,2,-3
14:49:40.507253,1,1,0,-1,8,1,1,-1
14:49:40.508251,0,2,-2,-1,-2,1,-1,0
14:49:40.521245,-2,-3,-2,-1,4,-1,-2,-2
14:49:40.528240,-1,0,0,3,1,5,3,-1
14:49:40.544231,-2,-2,-2,-4,-4,0,-2,0
14:49:40.551224,-4,-4,-5,-2,-1,1,-1,-1
14:49:40.566214,2,-4,-2,0,-1,-6,-3,-2
14:49:40.566214,0,-2,-1,0,-5,-3,0,1
14:49:40.581208,3,1,-1,-3,-1,1,-1,-3
14:49:40.588203,0,3,0,-1,3,0,-1,0
14:49:40.603194,0,0,-2,0,-1,-2,1,-1
14:49:40.611196,-3,-3,0,-3,-8,-6,0,-1
14:49:40.626180,-2,-2,0,1,5,-2,-3,0
14:49:40.626180,2,-1,-2,2,-3,-2,0,2
14:49:40.641168,-1,-3,-2,-1,1,0,-1,-3
14:49:40.648166,0,-2,1,-3,-3,-2,0,2
14:49:40.671149,-4,0,-2,0,1,-1,2,-2
14:49:40.671149,-3,-1,-1,2,0,-2,-1,-4
14:49:40.686143,2,-3,0,-6,-2,-1,0,0
14:49:40.686143,-3,-1,-1,1,-4,0,-3,1
14:49:40.701133,1,0,0,4,5,2,0,2
14:49:40.709131,0,-2,-4,-1,-5,0,1,1
14:49:40.724118,-2,-1,0,-3,-2,0,-3,-1
14:49:40.731115,6,2,4,4,6,5,2,2
14:49:40.746106,-4,-1,-4,-2,-2,-6,-4,-3
14:49:40.747103,-3,-1,-2,-1,-4,-3,-1,-1
14:49:40.761096,0,-3,0,1,2,-1,1,0
14:49:40.768091,-2,0,3,0,0,-1,-2,2
14:49:40.783081,1,0,-1,1,-4,-6,-2,0
14:49:40.791076,-2,-1,-4,-4,4,4,0,0
14:49:40.807066,-1,1,0,-5,-6,-3,0,-1
14:49:40.808065,1,-2,-3,-1,-1,-1,-4,-1
14:49:40.821059,-4,-2,-1,-3,-5,-2,-2,-2
14:49:40.829053,0,-3,0,0,0,-3,0,-1
14:49:40.844045,-1,-2,-1,0,-4,-5,-2,1
14:49:40.851041,0,-2,1,0,-2,1,-4,-1
14:49:40.866031,-2,-4,0,-2,-3,-4,-2,-2
14:49:40.867031,-1,0,-3,-3,-3,0,2,-2
14:49:40.888017,-4,0,-1,1,-8,-6,0,-2
14:49:40.889014,0,-3,-4,-1,3,-2,-1,-4
14:49:40.904008,4,-1,1,-1,6,3,1,2
14:49:40.911003,0,-2,1,2,-2,-3,-1,0
14:49:40.925994,-2,3,-3,-3,-5,-1,-1,0
14:49:40.933989,3,-1,0,-1,-1,-1,-3,2
14:49:40.947981,0,0,-1,-1,0,2,2,2
14:49:40.948979,0,-1,-1,2,-2,0,0,-3
14:49:40.963967,-4,-1,0,-1,-6,-4,-2,-3
14:49:40.970966,-2,-2,-1,-1,1,-2,-2,3
14:49:40.985957,-7,-3,-1,0,0,1,-1,1
14:49:40.993952,-1,-1,2,-1,1,-1,-1,-1
14:49:41.008941,-1,1,0,-3,-12,-3,-2,0
14:49:41.008941,-1,-1,-2,-1,2,2,-1,0
14:49:41.023931,0,1,0,2,1,2,-1,0
14:49:41.030929,0,3,-3,0,-5,-3,-1,-1
14:49:41.045919,-5,1,0,-1,0,-3,-1,1
14:49:41.052915,1,1,0,0,-4,1,0,1
14:49:41.068903,-1,-3,-1,-4,0,0,-1,2
14:49:41.068903,-4,-3,-2,-1,1,0,1,2
14:49:41.091889,0,-2,-1,2,0,1,-1,-2
14:49:41.091889,1,0,-1,1,4,2,1,-2
14:49:41.106880,2,0,1,2,1,2,-1,-2
14:49:41.113875,-2,-1,-2,-3,0,0,-2,-3
14:49:41.128866,-1,2,0,0,-1,-1,1,0
14:49:41.128866,-4,0,-3,-1,-1,-6,-3,-8
14:49:41.143859,-1,0,-2,-1,-5,-2,0,-1
14:49:41.150852,-4,-3,-2,-1,-2,-2,-1,-6
14:49:41.165845,-2,-1,-3,-4,-1,-1,1,0
14:49:41.174838,-3,-1,-4,-1,-2,-5,1,-2
14:49:41.188829,0,4,1,3,1,4,0,1
14:49:41.188829,-2,-1,-1,1,7,-2,-1,1
14:49:41.203822,3,1,-2,-4,-3,-4,-2,-3
14:49:41.211817,-2,-3,-1,-2,1,1,1,2
14:49:41.226804,-2,1,0,1,-1,-2,-1,-2
14:49:41.233800,0,-1,-2,-2,1,1,-3,-2
14:49:41.248792,1,-1,-4,1,-2,-2,0,-3
14:49:41.248792,-1,-1,0,-2,0,-1,-1,0
14:49:41.263784,-2,0,-2,-1,-4,3,1,-1
14:49:41.270780,-1,-3,1,1,2,5,1,-1
14:49:41.285770,-1,-1,0,1,0,0,-2,0
14:49:41.293766,0,-1,-2,0,-1,-5,-5,1
14:49:41.308755,-4,-3,-2,-1,-1,1,-3,-3
14:49:41.308755,1,2,-1,4,-2,-4,-1,-2
14:49:41.324748,2,-3,-1,-1,1,0,-3,-3
14:49:41.330742,0,-1,-2,-1,-11,-1,-2,-2
14:49:41.345734,0,-1,0,-1,5,2,0,0
14:49:41.353725,2,1,-1,5,6,3,0,2
14:49:41.368716,-3,-1,0,-3,-8,-4,0,2
14:49:41.368716,-4,0,4,1,1,-1,-5,-3
14:49:41.383710,-3,0,-2,0,0,-3,0,-2
14:49:41.391706,-3,1,0,-3,-1,-1,-1,0
14:49:41.405695,3,1,0,-3,2,-2,3,1
14:49:41.413692,2,-1,0,-1,0,0,-1,-2
14:49:41.428680,-1,2,0,-4,-1,-4,-2,1
14:49:41.428680,-2,2,0,1,0,-4,-2,-2
14:49:41.443673,-1,-1,-3,-1,2,2,0,0
14:49:41.450675,1,-3,-2,1,-5,-1,-2,-4
14:49:41.466656,-3,-1,0,0,2,-1,1,-1
14:49:41.474653,0,0,1,1,0,-3,0,0
14:49:41.488645,-1,0,-3,-4,-11,-4,-1,-5
14:49:41.488645,3,2,1,2,7,4,-1,-2
14:49:41.503636,-1,-1,-3,0,-3,-3,0,-1
14:49:41.511628,10,3,-1,0,-1,-1,-1,3
14:49:41.526619,-3,-4,-1,-1,-2,1,2,-2
14:49:41.533617,-2,1,-2,2,5,0,2,-1
14:49:41.548608,0,0,1,6,-1,-4,0,1
14:49:41.549608,-2,-1,-1,-2,-2,-4,-3,-3
14:49:41.563598,1,0,0,-1,-3,-3,-1,-1
14:49:41.570594,-1,-5,0,-2,-5,1,2,-2
14:49:41.586585,1,1,2,2,3,5,1,0
14:49:41.601576,1,0,-3,-4,-4,-3,-1,-3
14:49:41.608569,-1,1,1,0,-1,0,3,-2
14:49:41.609567,-2,-2,-4,-3,-2,-4,-4,-4
14:49:41.623558,-2,4,0,-1,2,-1,-4,-4
14:49:41.630554,-2,-1,0,0,-1,-2,0,-3
14:49:41.646549,-3,0,-2,-3,-2,0,-3,1
14:49:41.653543,-3,-3,1,3,0,1,-1,-4
14:49:41.668534,-3,2,0,-5,-5,-1,2,-2
14:49:41.669530,-3,1,1,-3,-12,-4,1,-1
14:49:41.683522,-3,-4,-4,-1,3,-1,0,-2
14:49:41.691520,-3,1,-3,-3,-3,-2,0,-2
14:49:41.706508,-4,1,0,1,1,0,-3,-1
14:49:41.713505,1,-2,-2,-2,-1,-2,0,-2
14:49:41.728496,-2,0,-3,-2,0,-3,-1,-1
14:49:41.729493,-3,1,-3,1,-5,-3,-3,-1
14:49:41.743488,-2,1,0,0,0,2,-1,3
14:49:41.751481,0,-1,-1,-1,0,-1,-3,1
14:49:41.766470,-1,-1,0,0,1,1,0,1
14:49:41.774466,-2,1,-2,-2,-5,-5,-4,0
14:49:41.788459,0,-1,0,-1,1,-1,-1,-4
14:49:41.789459,-1,0,0,-4,2,3,-3,-1
14:49:41.803450,-2,-3,0,-4,-1,-4,-5,-1
14:49:41.811445,-1,1,-2,0,2,-1,-3,2
14:49:41.826437,-1,0,-1,2,4,-1,2,2
14:49:41.833431,0,-2,0,1,2,-3,-2,-4
14:49:41.848422,3,2,1,-2,-7,-3,1,3
14:49:41.856422,-1,-2,0,0,-3,2,-1,-1
14:49:41.871405,-6,-1,-3,-1,1,-1,-1,-1
14:49:41.871405,1,1,0,-1,-1,0,-4,1
14:49:41.886398,-1,0,1,-3,0,-3,-1,-2
14:49:41.893395,3,-3,-3,-2,-1,-1,-1,-3
14:49:41.908382,-2,0,1,-3,-3,-2,-4,-2
14:49:41.916380,-3,0,-1,-2,-1,0,0,2
14:49:41.931368,-1,0,-5,-1,-1,1,-3,0
14:49:41.931368,-2,1,0,-2,-2,1,-1,1
14:49:41.946361,-1,-4,-2,-3,-5,-4,0,-1
14:49:41.953357,-6,-2,-1,-1,1,-4,-1,-4
14:49:41.968344,0,3,0,-1,-2,-2,4,-1
14:49:41.976345,1,0,0,-1,-4,-2,0,0
14:49:41.991331,2,-5,0,-1,6,-3,1,1
14:49:41.992330,-1,1,-3,-1,-5,-3,-4,0
14:49:42.006324,-4,0,-3,1,2,-2,-1,-4
14:49:42.013319,-1,-1,-3,-5,-7,0,0,1
14:49:42.028310,-4,1,-4,3,0,-4,-2,-1
14:49:42.036302,-1,-2,-3,-5,-2,0,0,-1
14:49:42.051295,-2,0,-2,-1,0,2,-2,-2
14:49:42.051295,0,2,-1,2,-1,2,0,1
14:49:42.066284,-1,-1,-1,-1,-3,-1,-2,-1
14:49:42.074279,-5,-1,-1,-1,0,-2,-3,-1
14:49:42.088273,-3,-3,-3,-1,-4,-3,-5,-3
14:49:42.096268,-2,-1,-3,-1,-3,-4,-1,-2
14:49:42.111256,3,0,-1,0,1,-3,1,0
14:49:42.112256,0,0,0,-2,-4,1,-2,-3
14:49:42.126250,-3,-2,-1,-3,-2,0,1,-1
14:49:42.133245,1,0,2,3,5,0,0,-2
14:49:42.148235,4,-1,0,-2,2,4,1,3
14:49:42.156230,-3,-1,-1,1,-3,-6,1,-1
14:49:42.171221,1,0,0,0,0,0,0,1
14:49:42.171221,-5,0,0,3,-4,-2,0,0
14:49:42.186212,-6,1,-2,-1,-1,-1,2,-2
14:49:42.194207,0,0,-3,-1,-2,2,0,1
14:49:42.208196,0,-1,-1,-1,0,1,-1,-2
14:49:42.216194,3,2,0,0,3,2,0,2
14:49:42.231181,1,-2,0,0,-1,1,0,1
14:49:42.232185,-8,-4,-4,-3,4,-2,-2,-2
14:49:42.246175,-3,-1,-4,0,-6,0,-1,-1
14:49:42.253169,1,0,1,3,1,2,0,0
14:49:42.268160,3,0,0,-2,-1,-1,-4,-2
14:49:42.276154,4,3,1,2,-1,1,1,1
14:49:42.291146,1,-1,1,-1,-1,2,1,-2
14:49:42.292147,2,-1,3,0,-2,0,-3,2
14:49:42.307136,-2,-4,-1,-2,-1,0,-1,-2
14:49:42.314133,3,-4,1,-2,1,-3,-3,0
14:49:42.329123,0,-4,-4,0,5,3,-5,-4
14:49:42.336119,-3,-2,0,-2,-1,-2,-1,-1
14:49:42.351110,-2,3,-1,-7,0,5,2,2
14:49:42.352110,4,-1,-1,3,1,-1,-3,-1
14:49:42.366101,3,-1,0,-3,3,3,1,-1
14:49:42.375097,-1,5,-1,-1,0,-3,1,0
14:49:42.389084,-3,0,-2,1,2,0,-2,-4
14:49:42.396082,-1,-1,0,-4,-3,-2,2,-3
14:49:42.411070,0,-1,-3,1,-2,0,0,-1
14:49:42.412073,-3,-5,-2,0,2,-2,-4,-5
14:49:42.426064,-1,-2,-3,-4,-4,1,-1,0
14:49:42.434058,-4,1,-3,1,-2,-3,-1,-3
14:49:42.457042,-4,-1,1,-2,2,-1,0,-8
14:49:42.458046,0,0,0,-3,5,0,-3,-3
14:49:42.471036,0,-1,-3,0,-6,-6,-2,-2
14:49:42.471036,-2,0,1,1,2,4,1,-1
14:49:42.486026,-1,0,0,-2,-2,-3,-5,-3
14:49:42.494018,-4,-1,-1,-1,-5,-8,-5,-4
14:49:42.509010,-1,-3,0,0,-5,-5,0,-1
14:49:42.516008,4,-1,-2,1,2,1,-1,0
14:49:42.530998,1,-1,-1,-8,0,-5,1,2
14:49:42.531995,-1,0,0,1,-1,-1,-1,0
14:49:42.545986,-2,-3,-1,-3,-1,-2,-2,-3
14:49:42.552984,0,0,1,-2,-1,-2,-1,-1
14:49:42.568972,-1,-3,0,-2,0,-2,-3,-3
14:49:42.575971,7,0,-1,-4,-8,-1,-2,2
14:49:42.598955,-2,0,1,0,2,-1,0,1
14:49:42.598955,-4,1,0,-1,-3,-7,-5,-5
14:49:42.612946,-1,-2,-2,-3,-7,-2,-4,-1
14:49:42.613947,-3,-5,-2,0,-1,-3,4,2
14:49:42.628935,0,2,4,-2,0,3,2,2
14:49:42.635933,-8,-4,-6,-4,-3,1,-2,0
14:49:42.650924,3,1,2,1,5,-3,0,-1
14:49:42.658917,0,2,-2,-1,-4,-6,-3,-1
14:49:42.665915,-2,-2,-4,-1,0,-5,-1,-2
14:49:42.673908,-2,-1,0,-4,-1,-1,-1,-2
14:49:42.688898,0,-5,0,1,4,-2,-2,0
14:49:42.695896,-3,0,1,3,-3,-1,-1,0
14:49:42.710887,0,-2,0,5,2,-3,-1,-3
14:49:42.711884,0,1,1,2,0,1,0,-2
14:49:42.733870,-4,-3,0,-8,-5,-5,-4,-3
14:49:42.734873,-5,-1,0,1,-2,-4,-3,-3
14:49:42.748861,-1,-1,-3,-1,-2,-1,0,1
14:49:42.763854,-1,2,-1,-3,-1,0,-2,1
14:49:42.770850,0,1,0,1,0,0,0,0
14:49:42.771846,-4,-2,1,2,0,-1,-3,1
14:49:42.793834,3,-3,-1,-2,0,-1,-1,-1
14:49:42.793834,-1,-2,-1,1,-1,0,-4,0
14:49:42.808827,6,-3,-5,-4,-3,0,0,-3
14:49:42.815822,9,0,0,3,9,1,-3,18
14:49:42.830812,2,0,2,1,6,13,4,7
14:49:42.838807,-5,-2,-3,-2,3,0,-1,-4
14:49:42.853798,2,0,0,0,0,2,-2,0
14:49:42.853798,-1,-1,2,-1,-3,-1,-2,-5
14:49:42.868789,-4,-2,-2,1,-6,1,-1,-2
