timestamp,emg1,emg2,emg3,emg4,emg5,emg6,emg7,emg8
16:28:14.923155,-3,1,-4,-3,0,0,-30,0
16:28:14.936147,-3,2,1,1,3,7,9,-1
16:28:14.937145,0,-1,-5,-2,0,-5,0,0
16:28:14.952135,-2,-2,-3,-1,-2,0,-4,-3
16:28:14.960131,-3,-1,-3,-1,1,2,3,-3
16:28:14.974122,-1,0,-2,0,-2,1,5,3
16:28:14.981117,-3,0,-4,0,1,-1,0,-1
16:28:14.997107,0,-1,-1,0,-1,-1,-3,-4
16:28:14.997107,-2,-2,-1,1,1,2,-3,0
16:28:15.011099,0,-2,-4,-3,-4,-5,-7,-3
16:28:15.019094,2,-1,-2,0,1,8,26,10
16:28:15.034086,11,-1,-3,-4,-4,-8,-27,-2
16:28:15.041080,3,-1,1,0,1,7,1,2
16:28:15.056070,-3,-3,-3,-1,0,1,2,-4
16:28:15.064068,-4,-3,-4,-2,0,-8,15,2
16:28:15.071061,1,-3,-1,-1,0,-4,-3,5
16:28:15.078059,-4,-2,-2,-3,-3,-1,-3,1
16:28:15.094047,-4,-2,-2,0,0,-3,-12,-5
16:28:15.101043,-1,-3,-3,-4,2,4,15,-2
16:28:15.117040,-3,-2,-2,-1,-3,-1,0,-3
16:28:15.124032,4,1,-1,0,1,5,5,-1
16:28:15.131025,-1,-1,0,-2,1,-2,-2,-6
16:28:15.146015,-7,0,-1,2,1,0,-34,-1
16:28:15.154014,-6,-5,-3,-6,-5,-4,7,-5
16:28:15.161009,-3,-6,-4,-1,2,4,4,-1
16:28:15.175996,-4,1,2,0,0,-1,3,0
16:28:15.183995,-1,-1,0,-2,-1,0,2,0
16:28:15.198986,-2,-1,-1,-2,-3,-6,-6,-6
16:28:15.199986,-6,-2,-1,-3,-1,1,1,1
16:28:15.213974,-3,0,-1,1,1,-3,-5,-3
16:28:15.221970,-5,-4,1,-3,1,-1,-3,-4
16:28:15.236964,-5,-2,-1,-1,0,0,1,0
16:28:15.243958,-3,0,-1,-1,-3,1,0,1
16:28:15.258949,2,-3,1,-2,3,1,0,3
16:28:15.259948,2,1,-3,1,3,21,31,17
16:28:15.273940,-1,-1,0,4,-1,2,-3,-4
16:28:15.281931,0,0,-2,-3,-2,-2,6,5
16:28:15.296923,-4,0,0,-2,2,4,5,-1
16:28:15.303921,-1,-1,0,1,0,0,-1,-1
16:28:15.318912,-1,0,1,-2,-2,-1,-1,-5
16:28:15.319908,4,-2,1,2,4,10,6,8
16:28:15.333903,-4,-3,-4,-1,0,-1,-7,-6
16:28:15.340898,-6,-4,-3,-1,-3,-4,1,-7
16:28:15.363882,5,1,-1,-2,-5,-5,-1,11
16:28:15.371876,-7,-2,-3,-1,-1,0,3,-2
16:28:15.378875,-3,-1,-1,0,0,0,-1,-1
16:28:15.379872,5,2,-1,2,-1,-2,-5,-1
16:28:15.393866,-8,0,-1,0,-3,-7,-1,-4
16:28:15.401858,2,-3,-5,0,4,10,9,6
16:28:15.423848,0,-3,0,-3,-1,-1,6,0
16:28:15.424847,-3,-2,-1,-1,-1,-4,-8,-4
16:28:15.438838,-5,-3,-1,-2,0,0,-27,0
16:28:15.439834,3,-5,-1,0,0,4,14,-1
16:28:15.453829,-3,-1,2,-3,-4,-1,4,-4
16:28:15.461822,-5,-2,-2,0,0,0,-5,-5
16:28:15.476815,-1,-2,-1,-2,-1,-2,1,2
16:28:15.483811,-1,-2,-3,0,-1,-2,5,4
16:28:15.498799,1,2,2,-1,1,5,-2,-5
16:28:15.506796,-1,0,0,-5,-3,-2,-11,-5
16:28:15.521784,1,-1,-2,1,-2,0,1,3
16:28:15.521784,-4,-5,0,-2,0,-4,-4,-5
16:28:15.536777,-4,-1,-3,1,-3,7,31,4
16:28:15.543774,7,-1,-2,1,-2,-2,7,-2
16:28:15.558765,-2,0,0,-2,1,6,3,8
16:28:15.566760,1,0,-3,-1,-1,-1,11,11
16:28:15.573755,1,0,-2,-1,-1,-1,-1,-2
16:28:15.588746,0,-3,1,-2,1,-2,-2,2
16:28:15.596738,-1,3,-1,0,3,3,14,0
16:28:15.603736,-2,-4,-3,-1,0,4,-6,-1
16:28:15.618726,-2,1,-3,-2,-3,-3,-3,0
16:28:15.626720,4,1,2,0,2,3,11,14
16:28:15.634718,4,-1,0,0,-2,-6,0,-2
16:28:15.641710,-10,1,3,1,1,-2,3,-7
16:28:15.656704,-1,0,0,2,-1,-3,-10,-2
16:28:15.663696,-3,-4,-2,-5,0,-8,-20,-1
16:28:15.693681,0,2,4,0,-1,-5,-12,1
16:28:15.694680,-1,0,-3,0,-4,1,8,-1
16:28:15.694680,2,-1,-1,-2,-1,1,-2,-3
16:28:15.701677,2,0,0,-1,3,2,0,-1
16:28:15.716664,-1,-2,-3,-1,-3,-2,-7,-4
16:28:15.723660,8,0,-2,-2,0,-3,0,1
16:28:15.738651,-1,0,-2,-4,-3,-2,-1,-2
16:28:15.746646,-2,-1,-3,-1,1,0,-2,1
16:28:15.753642,2,0,0,-1,2,9,21,1
16:28:15.761637,10,-2,1,-1,0,1,-3,-4
16:28:15.776631,-3,1,0,-1,-1,1,4,-2
16:28:15.784626,0,-3,0,1,3,10,13,5
16:28:15.799613,-2,1,0,4,-2,0,1,-2
16:28:15.806612,0,0,0,2,-1,2,-1,-2
16:28:15.814604,1,-1,-1,2,-2,1,8,3
16:28:15.821603,-7,0,3,1,1,4,5,5
16:28:15.836593,0,-1,0,0,-2,-3,-4,-1
16:28:15.843587,-1,0,0,2,-4,-3,-10,-6
16:28:15.859577,-2,-4,-1,-2,0,-3,-4,-2
16:28:15.859577,10,1,-2,-2,0,5,1,10
16:28:15.873568,-3,-3,-2,-1,-2,-8,-11,-7
16:28:15.881563,-1,0,-1,-1,-1,-5,2,6
16:28:15.896556,-3,-3,-2,2,3,-5,-4,-2
16:28:15.903550,-5,0,2,-1,4,3,2,-5
16:28:15.919540,-1,-1,2,2,5,2,-1,4
16:28:15.919540,2,-1,0,-3,0,1,0,-2
16:28:15.934530,-3,-1,-6,0,-2,1,4,0
16:28:15.941526,-1,0,1,-1,0,7,5,-5
16:28:15.956517,-1,2,-2,0,0,12,23,-2
16:28:15.971510,1,1,-2,-2,3,1,2,3
16:28:15.986501,8,-4,1,-3,-1,-1,-1,2
16:28:15.987499,-3,-3,-1,0,-2,5,-11,-3
16:28:15.993494,-2,-3,-1,-1,0,-1,0,-1
16:28:16.001492,0,-2,-1,1,-2,-3,14,1
16:28:16.016483,0,-1,-2,-2,0,-3,-3,-3
16:28:16.024476,-2,-2,-3,-8,-1,-5,-8,-6
16:28:16.039465,0,0,0,0,-1,3,14,9
16:28:16.046464,1,-1,-3,-5,1,-4,-4,-4
16:28:16.054456,-2,0,-3,-1,0,-6,5,4
16:28:16.061455,-2,-2,-2,-4,-3,-4,-2,0
16:28:16.076446,-4,-2,1,-1,-5,-1,-4,-3
16:28:16.084438,-5,-3,-1,1,4,-2,-7,-5
16:28:16.099428,3,-1,0,-2,3,11,46,5
16:28:16.114420,-3,-1,-2,0,-1,-2,-6,-1
16:28:16.121418,-2,1,0,4,-4,-3,-14,1
16:28:16.121418,-5,-3,-2,6,4,4,8,-2
16:28:16.136419,4,-1,0,0,-1,-2,-1,5
16:28:16.143406,-8,-4,-5,0,1,-4,-16,-5
16:28:16.166390,-3,-2,0,-1,-1,-2,-5,-2
16:28:16.167388,-3,1,0,1,4,2,0,1
16:28:16.182378,2,-1,0,-3,2,4,13,7
16:28:16.182378,-2,-3,-1,-2,0,3,-4,4
16:28:16.204364,-2,2,-2,2,-2,1,-1,-2
16:28:16.204364,-7,0,-1,1,-4,-5,-32,-10
16:28:16.226353,-3,-3,0,-4,-4,-9,-7,0
16:28:16.227350,-7,-4,-2,-3,0,-3,4,1
16:28:16.241344,5,0,1,0,0,3,8,7
16:28:16.242344,-3,-6,0,0,1,-1,1,-1
16:28:16.256335,-3,3,-1,-11,-1,-4,0,-3
16:28:16.264328,-3,1,-3,1,0,4,-3,-5
16:28:16.279318,0,1,1,3,-3,-4,-3,-5
16:28:16.286317,-3,-2,-1,-3,0,0,4,3
16:28:16.301308,-1,-1,-2,0,0,-2,6,2
16:28:16.302304,-1,-3,1,1,2,0,-7,-4
16:28:16.316298,-2,1,2,-2,-3,-2,-1,-2
16:28:16.324291,7,1,0,-1,0,-1,2,3
16:28:16.339284,-4,-1,-1,-2,0,1,13,-4
16:28:16.346279,-1,1,-1,0,1,0,-18,-4
16:28:16.361270,5,3,-2,0,0,5,8,8
16:28:16.362269,-1,-1,-3,3,0,-7,2,-4
16:28:16.376261,-1,-1,-4,-2,-1,-4,-5,-1
16:28:16.392252,-5,1,0,1,1,-1,-2,-8
16:28:16.399247,2,-1,-2,0,-1,-4,-2,1
16:28:16.406243,0,1,2,1,0,1,2,0
16:28:16.421234,-5,-1,-1,-3,0,0,-8,-7
16:28:16.422230,-3,0,-1,-2,-4,5,-13,0
16:28:16.436223,-1,1,1,-1,0,0,8,-6
16:28:16.444216,-1,-1,-1,-3,-1,9,-10,-8
16:28:16.459210,3,0,0,-2,-3,-1,1,4
16:28:16.466202,2,-1,0,0,1,0,15,14
16:28:16.481195,-1,-3,0,-1,-2,-2,-5,-5
16:28:16.482196,-2,-2,-1,7,0,-3,-8,-5
16:28:16.496185,2,3,2,1,2,8,11,11
16:28:16.504179,-1,0,-1,1,0,5,6,3
16:28:16.519173,-12,-7,-1,-2,-1,-23,-17,-5
16:28:16.526167,-6,-3,-3,-2,5,15,22,2
16:28:16.541160,0,2,1,-4,-5,-8,-6,-3
16:28:16.542159,-1,-1,-1,1,-3,-3,-8,-5
16:28:16.564143,1,1,2,0,0,9,7,5
16:28:16.565142,2,-2,-3,-4,2,4,6,-2
16:28:16.579136,-3,-3,-1,3,-1,-5,8,-8
16:28:16.586129,-4,-2,-3,-2,1,1,17,-2
16:28:16.601123,1,0,-1,-1,0,0,11,0
16:28:16.602120,6,1,1,0,-2,-4,-2,7
16:28:16.624106,-3,-4,-2,-4,-2,0,-7,-4
16:28:16.624106,-3,2,-1,0,-1,3,3,4
16:28:16.646093,3,4,-3,-4,1,7,-3,-1
16:28:16.647092,-2,-1,0,-2,-3,-4,-3,-12
16:28:16.661083,3,2,-1,-1,-3,-2,3,-1
16:28:16.662085,-10,-2,3,0,3,-5,-7,-8
16:28:16.676074,5,1,-2,-1,4,5,13,18
16:28:16.684072,8,-3,-4,-1,-5,-1,0,-2
16:28:16.699063,-4,-4,-1,-3,1,-6,-9,-3
16:28:16.706056,1,3,0,6,0,-1,3,5
16:28:16.729044,-3,-1,-3,2,-1,2,-6,-5
16:28:16.730042,-4,-1,-5,2,1,0,0,-6
16:28:16.737037,-3,0,-1,-5,-3,-9,-21,-9
16:28:16.744035,-3,-2,2,-1,-1,-5,-10,-7
16:28:16.759026,-5,-3,-4,-1,-1,0,-16,-4
16:28:16.767021,3,-2,-3,-2,-2,1,7,-2
16:28:16.782010,0,-1,1,1,-2,0,-1,-6
16:28:16.782010,-4,-2,-1,0,0,3,2,-1
16:28:16.797004,4,1,1,0,5,10,12,6
16:28:16.803998,-4,-1,3,-1,2,0,-4,-4
16:28:16.818988,-1,-3,-2,2,6,2,-9,-8
16:28:16.825981,3,1,-1,0,-1,-5,-29,-2
16:28:16.841972,-2,-1,-1,1,1,2,8,-4
16:28:16.841972,-3,0,0,-3,-1,0,-2,-10
16:28:16.856963,-1,-2,0,2,-1,-1,-4,-2
16:28:16.863961,-1,0,0,0,-2,-5,-3,-1
16:28:16.878952,3,3,0,3,0,3,7,9
16:28:16.886947,1,2,-1,0,-3,0,-4,3
16:28:16.901937,0,2,2,0,-3,-4,-1,-7
16:28:16.901937,0,-2,-1,-2,-2,-3,1,-2
16:28:16.916927,0,-2,-3,-1,1,0,-6,-2
16:28:16.923924,-10,-6,-1,2,0,3,-21,-9
16:28:16.938915,-4,2,-1,-1,-3,3,-7,-10
16:28:16.945910,1,0,0,3,2,8,11,5
16:28:16.961898,-1,2,0,-2,-1,-5,-5,-5
16:28:16.968896,0,1,-1,-1,-1,12,20,15
16:28:16.976890,-5,-1,3,5,-2,-1,-6,-4
16:28:16.983887,3,0,0,5,0,0,-6,0
16:28:16.998878,1,-1,-1,-3,2,2,-1,2
16:28:17.006870,-5,-4,-2,-1,2,1,-5,-6
16:28:17.021864,-4,0,0,-1,-1,1,-4,-3
16:28:17.028859,0,-4,0,0,1,-1,3,-1
16:28:17.043850,0,-2,-3,-1,0,2,1,1
16:28:17.044849,-13,-2,-2,-1,1,2,60,-12
16:28:17.058841,6,2,2,1,1,7,-8,2
16:28:17.066834,-2,0,0,-2,-3,5,11,-6
16:28:17.088823,-9,-1,-2,-4,-4,-5,-5,-5
16:28:17.089821,-4,-3,-2,-1,-1,-1,-4,-4
16:28:17.103813,1,-2,0,-3,-7,-2,-1,-2
16:28:17.104810,3,-2,1,-2,-2,-6,1,0
16:28:17.118804,-5,0,-3,-1,-4,-2,-2,-1
16:28:17.126799,0,-2,-1,0,0,2,-3,-6
16:28:17.141788,-1,-2,0,-7,0,0,0,1
16:28:17.148786,-3,-2,2,3,-3,-1,1,1
16:28:17.163776,-2,3,2,8,3,2,1,2
16:28:17.164773,1,-2,-7,-1,3,3,-7,-4
16:28:17.178764,-6,-1,2,2,-1,-3,1,0
16:28:17.186760,1,-1,1,7,0,2,5,2
16:28:17.201755,0,0,-8,-1,-3,1,3,-3
16:28:17.208749,1,1,-3,-4,-1,1,1,1
16:28:17.223740,-4,-2,8,4,1,-3,-5,-1
16:28:17.224737,3,0,-6,-1,1,-1,1,0
16:28:17.246724,0,-1,2,-27,0,2,-2,2
16:28:17.246724,2,-3,-2,6,4,2,-4,-6
16:28:17.261716,-2,-1,5,8,0,3,-6,-3
16:28:17.276707,0,-2,-5,4,-3,-4,1,0
16:28:17.283703,-4,-5,-2,7,-1,-1,-4,-1
16:28:17.284702,-2,-1,-2,-5,1,-2,-4,0
16:28:17.298692,4,4,-4,8,7,4,3,0
16:28:17.306688,2,2,2,-14,-6,-4,-4,-1
16:28:17.321679,-2,-2,-9,2,4,2,-3,0
16:28:17.328673,0,-1,-3,-4,-8,-1,-1,1
16:28:17.343666,-6,-1,2,7,1,-2,1,-1
16:28:17.344665,0,-1,9,-8,-2,1,-2,-5
16:28:17.358655,-2,-2,-1,14,3,4,0,0
16:28:17.366651,-2,0,-5,11,-4,-2,0,-3
16:28:17.381643,0,2,-3,-5,2,1,-3,-2
16:28:17.396633,-1,-1,-2,-4,-14,-4,-2,-3
16:28:17.403628,1,1,21,4,-22,-5,-1,2
16:28:17.404628,-6,-4,24,-61,57,17,-2,-3
16:28:17.418619,4,2,-102,-128,-128,-11,1,5
16:28:17.426616,-13,2,117,127,127,9,-11,-13
16:28:17.441606,-3,-25,-128,36,-128,-60,2,2
16:28:17.456596,-28,-14,123,118,98,-23,-18,-24
16:28:17.463588,29,13,-88,127,-125,-11,13,22
16:28:17.464590,-26,-25,8,22,127,-3,-16,-18
16:28:17.479580,31,26,-59,-128,-128,-18,23,28
16:28:17.486578,-27,-2,105,127,127,127,-12,-26
16:28:17.508563,33,-15,-128,-128,59,-2,25,36
16:28:17.509562,-11,59,127,127,127,127,17,-12
16:28:17.531550,7,-25,37,-128,-128,-128,-11,7
16:28:17.532549,-14,37,127,127,127,127,0,-6
16:28:17.538544,9,-32,-128,-85,127,-65,4,15
16:28:17.546540,-8,-35,-128,-128,127,1,-7,-9
16:28:17.561532,-15,-19,127,-128,-128,-128,-19,-14
16:28:17.568525,0,16,75,127,-128,52,10,-2
16:28:17.583515,46,53,6,127,-128,38,35,35
16:28:17.584514,-27,-53,-55,117,127,-17,-22,-21
16:28:17.599505,-4,9,1,51,-97,10,7,0
16:28:17.606504,15,41,31,63,-47,4,6,9
16:28:17.621495,-12,-42,-46,-101,-48,-14,-6,-6
16:28:17.629487,14,34,-10,-128,-59,5,3,3
16:28:17.651476,7,4,31,-12,112,49,-1,-4
16:28:17.652479,46,127,127,33,-9,6,9,15
16:28:17.658468,-71,-128,-120,-112,89,-37,-25,-33
16:28:17.666467,24,41,49,88,127,9,-2,4
16:28:17.681458,26,67,71,-41,-128,-3,7,6
16:28:17.688453,-50,-103,-35,127,47,40,-7,-13
16:28:17.704443,62,96,4,-128,-29,-68,14,26
16:28:17.704443,-67,-128,-67,-13,127,-13,-12,-11
16:28:17.719434,-3,-22,-18,-49,-47,-13,6,14
16:28:17.726430,105,127,112,127,127,-7,4,25
16:28:17.741421,51,118,57,-128,127,-44,11,19
16:28:17.749416,-28,-109,-53,-128,-128,-67,3,6
16:28:17.763406,-20,-83,-35,127,52,2,-5,-3
16:28:17.764407,11,-59,33,127,127,57,32,24
16:28:17.779394,11,52,58,-128,-122,9,-3,-1
16:28:17.786393,49,90,67,-77,127,58,11,12
16:28:17.801384,-42,-82,-34,54,127,32,-2,-15
16:28:17.809379,4,13,51,127,127,45,3,-3
16:28:17.824369,10,-24,-10,127,46,4,15,17
16:28:17.824369,4,-1,-39,-110,54,-7,-4,-2
16:28:17.839357,14,52,2,-128,-128,-110,-13,-6
16:28:17.846356,-23,-34,10,-45,-128,-2,-14,-10
16:28:17.869338,2,-74,-3,127,127,97,19,13
16:28:17.869338,20,69,17,-99,30,-31,-5,4
16:28:17.884330,22,46,35,-83,-104,1,6,5
16:28:17.891329,-1,11,47,57,79,20,-1,-6
16:28:17.899321,32,79,65,-128,-55,-53,-6,2
16:28:17.906319,-12,8,2,-91,103,16,-8,-11
16:28:17.921310,28,57,35,61,127,53,10,8
16:28:17.929302,-7,-5,24,120,-125,-44,-3,-1
16:28:17.951292,10,22,32,108,79,98,5,5
16:28:17.952291,-25,-45,-34,-128,-87,51,-8,-8
16:28:17.959285,-19,-32,-19,107,-37,16,-7,-14
16:28:17.966283,38,76,34,-99,-128,10,13,17
16:28:17.981273,-27,-48,-5,85,81,33,-9,-15
16:28:17.989267,20,34,4,-35,126,0,5,10
16:28:18.004256,-14,-5,26,67,127,38,-8,-11
16:28:18.011255,58,127,54,-97,-66,-7,4,16
16:28:18.026246,1,10,40,127,105,5,1,4
16:28:18.027244,10,25,3,20,-60,-42,-1,7
16:28:18.041236,-2,-15,-20,29,127,28,5,4
16:28:18.049228,25,16,1,111,-128,-21,9,16
16:28:18.064220,-18,-32,-53,-99,-47,1,-6,-10
16:28:18.071217,-27,-52,-31,46,-24,10,-1,-4
16:28:18.094201,29,31,49,127,127,103,19,19
16:28:18.094201,15,31,-9,-114,53,19,-1,2
16:28:18.109191,7,15,24,55,-108,10,4,0
16:28:18.109191,-88,-128,-67,76,4,33,-12,-31
16:28:18.131178,39,72,27,-128,-55,28,13,17
16:28:18.132179,-14,-32,-27,-65,21,34,0,-5
16:28:18.146172,-5,-29,-38,-128,127,65,5,-3
16:28:18.147168,-4,-2,4,-56,-34,-23,0,-3
16:28:18.161161,-3,15,31,-93,-75,-22,-3,-2
16:28:18.176152,8,31,34,113,127,-6,6,2
16:28:18.184148,16,35,8,-70,-128,-30,1,5
16:28:18.206135,0,1,-21,-46,-128,-34,-9,-2
16:28:18.207131,-1,2,14,1,43,5,-5,-3
16:28:18.208132,-11,-29,-3,-43,-128,-30,-3,-4
16:28:18.221122,-5,-12,14,69,-128,8,1,1
16:28:18.229118,6,6,4,16,-128,14,3,0
16:28:18.244111,-29,-47,-25,-4,53,-3,-10,-12
16:28:18.251105,3,8,31,109,81,-3,3,4
16:28:18.266098,15,19,14,127,127,39,6,11
16:28:18.267098,12,24,11,-128,-61,-6,1,4
16:28:18.281085,-18,-74,-53,44,-68,-21,1,1
16:28:18.289084,11,18,-1,-95,-128,-35,2,4
16:28:18.304075,-22,-25,-27,-90,-128,25,-7,-11
16:28:18.311067,-43,-81,-24,97,127,62,-14,-26
16:28:18.326059,5,-10,-7,65,-128,-128,6,7
16:28:18.327059,44,114,69,-80,-128,-10,2,12
16:28:18.342051,-30,-29,-12,17,-128,-16,-14,-16
16:28:18.349047,10,12,-12,-128,-128,-63,-4,5
16:28:18.364035,12,28,9,-128,-128,-25,-2,4
16:28:18.371032,-15,-19,-19,-25,-21,28,-10,-14
16:28:18.386022,8,14,13,54,127,-14,4,3
16:28:18.387022,-3,-14,-4,-7,7,3,3,-2
16:28:18.417005,-1,4,0,4,-19,-3,-3,-1
16:28:18.424001,9,5,-11,-79,127,-7,1,6
16:28:18.424997,-3,1,9,-22,-33,-20,-4,-4
16:28:18.431994,-3,-9,-14,-47,-31,-6,0,2
16:28:18.453982,15,25,18,25,127,-6,3,7
16:28:18.454979,0,6,4,32,-47,-17,0,0
16:28:18.460978,-4,-7,-8,-21,-36,-7,-2,-5
16:28:18.468970,4,24,2,-56,106,-3,-4,0
16:28:18.483964,-4,-5,32,80,127,85,3,1
16:28:18.490960,8,15,-16,-128,-128,-25,-2,4
16:28:18.513945,7,22,73,127,127,-9,3,1
16:28:18.514944,-3,-21,-36,-82,-128,32,11,8
16:28:18.521939,9,9,-2,46,127,6,3,6
16:28:18.528936,9,7,20,87,127,48,7,3
16:28:18.543927,9,10,23,32,127,33,9,8
16:28:18.551921,-29,-90,-89,1,127,-28,-1,-4
16:28:18.566910,-1,-47,14,127,127,127,5,-2
16:28:18.566910,6,12,5,-128,-128,-103,0,5
16:28:18.581902,-59,-128,-114,-56,123,31,-7,-11
16:28:18.588899,38,127,72,69,-128,-128,-6,1
16:28:18.603890,25,35,18,53,92,-32,11,20
16:28:18.611885,-14,-60,-36,13,127,-24,3,-7
16:28:18.633872,26,55,38,-24,107,-6,3,10
16:28:18.634869,23,-3,-76,-128,-128,-128,7,17
16:28:18.640869,-16,4,27,76,-128,-16,-7,-12
16:28:18.648862,-1,2,-13,-67,-88,-22,0,0
16:28:18.663852,5,0,-1,-18,12,-22,-1,5
16:28:18.671845,-4,-7,-5,-7,25,0,1,-3
16:28:18.685839,-1,-7,-2,11,38,32,2,-1
16:28:18.686836,1,0,-3,-5,3,-7,11,-4
16:28:18.701829,-12,-7,0,2,2,10,-8,-2
16:28:18.708825,16,8,6,2,2,2,0,9
16:28:18.724813,-19,-2,-9,-9,-5,7,-53,-19
16:28:18.731811,64,9,-8,-12,-15,-26,-38,4
16:28:18.746799,-23,0,-3,-2,-3,-14,-122,-50
16:28:18.746799,-70,1,4,1,13,-1,92,0
16:28:18.761790,91,21,-13,-12,3,93,127,72
16:28:18.768788,-79,-51,-15,-12,11,-54,-128,57
16:28:18.783779,-20,-28,-20,-22,-49,-109,-128,127
16:28:18.791775,-128,-51,22,39,58,90,-128,127
16:28:18.806762,127,40,20,39,-19,-115,127,-83
16:28:18.813758,69,14,7,12,53,127,58,107
16:28:18.821753,-14,20,7,1,8,-1,4,-29
16:28:18.828751,5,7,4,6,38,28,-41,9
16:28:18.843742,1,3,-2,-79,88,23,-12,36
16:28:18.851738,56,-17,13,-42,127,108,-128,54
16:28:18.866728,118,-120,-53,-125,-128,-20,-128,32
16:28:18.873723,43,52,84,127,-120,-27,43,-30
16:28:18.881716,75,-82,-2,-97,51,53,16,54
16:28:18.888711,-62,7,-40,127,127,-39,19,-67
16:28:18.903703,-36,6,11,114,92,-23,-5,-12
16:28:18.911698,22,-39,-1,73,127,44,-5,6
16:28:18.933687,-24,-72,-35,34,127,-11,-16,-57
16:28:18.934683,-2,-2,51,103,127,-9,-81,14
16:28:18.948678,-48,-15,-57,-128,-82,-43,26,-44
16:28:18.949675,28,8,84,-29,31,48,27,66
16:28:18.963666,-128,-89,-22,119,79,-25,-128,-123
16:28:18.971660,54,-4,11,-2,21,18,1,27
16:28:18.986654,-19,7,17,30,-53,-7,-24,-2
16:28:18.993649,20,7,-4,1,-16,53,127,127
16:28:19.008641,51,13,21,59,104,-13,-56,23
16:28:19.009637,-23,-4,-6,-3,-128,-33,7,-34
16:28:19.023631,-30,-24,-17,17,124,25,8,4
16:28:19.031624,-17,-3,-26,-20,28,13,7,0
16:28:19.046617,16,20,28,97,109,7,-16,6
16:28:19.053611,-20,-12,0,31,63,3,60,10
16:28:19.068603,47,-7,-12,10,13,9,4,3
16:28:19.069600,-8,-4,-2,-50,-75,4,36,19
16:28:19.084594,-10,-5,-4,-9,-20,-15,-3,-13
16:28:19.091590,-9,-1,6,43,43,-17,-46,-21
16:28:19.106580,-40,-24,-8,-10,-77,-23,2,-16
16:28:19.113573,9,-21,-16,2,7,-5,15,0
16:28:19.128567,28,12,-3,73,127,85,22,1
16:28:19.129566,-4,6,-6,-82,32,-5,1,-1
16:28:19.143555,16,2,-6,-5,-69,-2,4,21
16:28:19.151553,-7,-6,10,3,-128,0,1,8
16:28:19.166544,0,5,2,-2,-90,-23,-10,-26
16:28:19.174539,-6,-16,-11,9,22,-14,-36,12
16:28:19.188527,2,-2,-6,1,2,-25,-22,-14
16:28:19.189526,-3,0,1,36,58,2,4,-6
16:28:19.203518,1,2,11,54,46,-1,1,-4
16:28:19.226507,-1,-4,7,-128,-43,16,31,13
16:28:19.227503,47,4,0,34,-80,-8,-9,12
16:28:19.234499,11,2,1,7,-47,1,2,18
16:28:19.256488,-5,7,0,0,5,9,0,4
16:28:19.257488,-7,-7,-14,-12,-26,-32,-49,4
16:28:19.263483,18,10,8,28,51,8,-16,10
16:28:19.271479,1,-6,1,61,29,-6,-12,-9
16:28:19.286470,1,-3,-5,2,-2,6,7,-2
16:28:19.293465,-18,-2,-1,5,15,-9,-30,-10
16:28:19.308454,-8,5,1,-54,-119,-24,-4,-13
16:28:19.309453,-12,-6,-1,38,-34,5,-7,-13
16:28:19.324443,2,-3,-1,-7,-4,0,-1,-2
16:28:19.331442,-5,-2,-1,3,-2,-2,0,8
16:28:19.346432,-2,-2,2,-2,-9,-4,-4,-5
16:28:19.354425,-3,1,-3,-34,-69,-4,-1,-3
16:28:19.368417,-8,-5,-7,15,32,3,-11,-16
16:28:19.369418,-2,-1,2,-4,-1,5,-5,-8
16:28:19.384408,-3,-3,-3,-6,-8,-2,-25,-5
16:28:19.399401,-8,-1,-3,-1,-1,2,4,-4
16:28:19.406396,0,-1,-2,1,0,-7,-5,-2
16:28:19.413391,-8,0,2,-2,-6,-6,-8,-9
16:28:19.428381,4,3,0,-2,-5,-4,9,1
16:28:19.429379,-3,0,2,0,-3,-22,-9,-5
16:28:19.444370,1,2,2,1,2,7,18,21
16:28:19.459361,-1,1,1,5,12,6,1,-4
16:28:19.473352,-5,-1,1,-3,-5,-17,-45,-12
16:28:19.474352,-4,-2,1,-2,0,-10,-15,4
16:28:19.488345,2,-2,-3,1,1,2,8,-3
16:28:19.489341,0,-1,1,-1,-2,-11,12,8
16:28:19.511331,5,5,4,4,10,30,30,6
16:28:19.512327,-1,0,1,1,3,5,-5,-15
16:28:19.526320,-1,0,0,-1,-1,-3,-12,0
16:28:19.534316,-11,-2,-1,-3,2,-2,1,-14
16:28:19.549306,-1,-2,0,0,-3,22,-12,-17
16:28:19.549306,-4,0,-1,1,-4,-10,0,-9
16:28:19.564296,6,3,2,-3,1,2,3,31
16:28:19.571293,-5,-2,-1,2,-1,-6,5,-12
16:28:19.586282,-1,-1,1,0,0,0,-4,2
16:28:19.594280,-1,0,1,-3,2,1,8,4
16:28:19.609268,-5,1,1,0,-1,-13,-9,7
16:28:19.609268,-2,0,-3,-1,-5,-5,-1,9
16:28:19.624261,1,0,-3,2,-3,-7,-17,0
16:28:19.631255,-11,-2,-3,-2,3,-4,-20,-8
16:28:19.646245,3,0,2,0,1,0,-4,4
16:28:19.654240,-2,0,1,0,4,3,1,0
16:28:19.669231,4,1,-2,-1,2,-14,-29,2
16:28:19.669231,-6,1,0,-1,1,-6,4,-5
16:28:19.684225,-5,-3,-5,-3,-2,-24,-14,23
16:28:19.691218,-8,-3,-1,2,1,-3,-3,-16
16:28:19.706208,-6,-5,-3,-4,-6,-6,-16,-8
16:28:19.714206,-4,-5,1,-2,1,1,5,-3
16:28:19.729194,3,1,-1,0,-4,-12,-15,12
16:28:19.729194,-5,-1,-3,-1,4,5,5,-5
16:28:19.744188,-10,-7,-1,-1,-2,-5,-17,-11
16:28:19.751181,4,-2,-3,-4,1,10,8,-12
16:28:19.766174,2,-1,-1,-1,0,4,-25,-8
16:28:19.774169,-4,-5,-3,-4,-1,2,19,-8
16:28:19.789158,6,4,1,-1,3,9,-12,22
16:28:19.796153,-2,-2,1,-1,-1,5,-3,-2
16:28:19.804148,5,0,0,3,4,11,25,2
16:28:19.811144,-7,2,-3,-3,-1,-7,4,-8
16:28:19.826135,-3,-3,-5,0,-4,-7,-6,-4
16:28:19.834133,-4,-4,-1,3,3,12,26,4
16:28:19.849123,12,-2,0,1,-2,-6,-41,-2
16:28:19.856117,-2,-5,-2,1,-4,-30,-16,0
16:28:19.864114,-5,-2,1,0,-1,-1,2,-9
16:28:19.871108,0,-2,-1,-1,1,-5,-3,-1
16:28:19.887100,-2,0,1,-1,-1,0,-6,-2
16:28:19.894092,4,-8,-1,-4,3,4,1,4
16:28:19.909086,-2,-2,1,-1,0,6,-4,-14
16:28:19.916079,14,3,0,-2,1,3,-4,34
16:28:19.931073,-5,-3,-6,-1,-4,-23,-29,-18
16:28:19.932072,5,-1,1,-2,1,6,15,15
16:28:19.946063,-5,0,-3,1,1,5,17,4
16:28:19.954059,1,1,1,1,-3,-3,-7,-9
16:28:19.969050,11,-2,-1,1,5,3,1,11
16:28:19.976043,-1,2,1,-1,1,-10,10,23
16:28:19.999031,-3,-2,0,-1,-5,-3,7,-5
16:28:20.000030,-2,-3,-1,-3,-2,4,23,-7
16:28:20.006026,2,-1,1,6,3,13,-1,5
16:28:20.014022,7,-1,-2,-2,0,0,10,5
16:28:20.029013,-12,-2,-5,-3,-3,4,9,-2
16:28:20.037004,-1,-2,-3,-1,-4,4,3,14
16:28:20.058994,-3,-5,-4,-4,-3,-10,-29,21
16:28:20.059991,-2,-2,0,1,0,-14,5,4
16:28:20.066986,1,1,0,0,3,0,10,7
16:28:20.088976,0,-2,-1,-2,0,2,-4,1
16:28:20.089972,-6,-7,-3,0,-1,3,-3,-9
16:28:20.103967,-1,2,1,1,5,0,-16,0
16:28:20.110959,-3,-5,-4,-2,-5,-4,-3,-8
16:28:20.111960,7,1,1,1,-7,-10,-21,-7
16:28:20.126952,-10,-4,-7,-8,0,13,4,-2
16:28:20.141940,-6,-1,-5,-5,-8,-18,-12,-3
16:28:20.148939,-6,-4,-1,-1,0,11,0,-13
16:28:20.156930,-2,-2,0,0,1,1,27,8
16:28:20.171922,-1,-1,2,0,-1,4,-7,-4
16:28:20.171922,-6,-3,2,1,7,-1,-20,1
16:28:20.186912,-2,-2,-4,-3,-2,-3,-18,-2
16:28:20.193911,6,-1,-1,-2,3,0,0,6
16:28:20.208902,-4,-6,-4,-3,-3,0,3,1
16:28:20.216903,3,3,1,1,0,10,-4,16
16:28:20.231885,0,0,-6,-6,-12,-34,-20,3
16:28:20.231885,-2,-2,-1,-1,-1,1,-9,-7
16:28:20.246878,-6,1,-3,-3,2,-4,-4,-5
16:28:20.253874,-3,0,0,-3,0,-1,-25,-5
16:28:20.276857,-1,-3,-3,-2,-4,3,2,3
16:28:20.276857,-5,-4,-2,-1,-1,1,-12,-11
16:28:20.291848,4,0,2,-4,-3,-24,4,-2
16:28:20.291848,4,-1,-1,1,-1,0,-6,-1
16:28:20.313834,-3,4,2,2,1,-2,5,-6
16:28:20.314834,-3,-3,1,1,4,1,-4,-4
16:28:20.328825,-1,0,0,2,0,-2,3,0
16:28:20.336823,-1,-3,-2,0,-1,-4,-6,3
16:28:20.351812,-5,-3,-7,-3,-4,9,29,-4
16:28:20.351812,-2,1,0,-2,-1,-6,1,-6
16:28:20.373800,16,6,2,2,5,18,19,20
16:28:20.374797,-3,-1,-1,0,3,-5,-24,-8
16:28:20.388790,-6,-3,-1,0,1,-25,17,-22
16:28:20.396785,-8,-2,1,-1,1,-5,-14,-3
16:28:20.411774,-5,1,-1,-3,-6,-16,-18,5
16:28:20.411774,-7,-3,-1,1,-2,-14,-20,-21
16:28:20.426768,9,2,2,2,1,13,6,13
16:28:20.433761,0,-1,0,-1,1,-4,-14,-6
16:28:20.448751,-5,-3,-4,-2,2,5,-1,-6
16:28:20.456754,-5,-2,-1,-6,-3,-3,16,-7
16:28:20.471737,-2,1,-1,-1,-1,17,33,1
16:28:20.471737,-4,-1,3,1,1,2,-2,-6
16:28:20.486731,-4,-1,1,2,0,-5,-6,-11
16:28:20.493725,5,3,3,3,2,8,17,22
16:28:20.508715,-4,0,-2,1,4,-5,-9,-11
16:28:20.516712,-3,-2,-1,2,1,-2,5,6
16:28:20.531700,-4,-3,-4,-3,-4,-11,-17,-13
16:28:20.532700,11,5,1,1,2,-1,-9,2
16:28:20.546694,-4,-7,-5,-4,-6,-4,-12,-9
16:28:20.553687,0,-3,-1,-1,-1,7,-8,-2
16:28:20.568678,1,1,-3,2,1,7,9,0
16:28:20.584670,1,-1,2,2,3,3,3,2
16:28:20.591663,-2,-1,1,-3,-5,-14,-13,-10
16:28:20.591663,0,0,0,-3,3,-2,-21,11
16:28:20.613649,-1,0,-2,-5,-4,-3,-4,-1
16:28:20.614649,3,-3,-2,-2,-3,0,-3,-5
16:28:20.628642,-8,-3,-2,-3,-1,10,-4,-10
16:28:20.636639,-4,-1,-1,-1,3,0,-9,5
16:28:20.651629,-6,-5,1,-2,-5,-8,-11,-10
16:28:20.651629,4,0,-1,1,1,3,9,9
16:28:20.666618,3,-1,0,0,-1,3,2,1
16:28:20.673613,-6,-3,-1,0,0,8,28,-1
16:28:20.688604,6,1,-2,-3,-2,2,-1,0
16:28:20.696601,-1,-5,0,-1,-1,1,7,-2
16:28:20.711590,0,2,2,2,-2,7,-15,-10
16:28:20.711590,2,-3,-2,-3,0,9,-6,-8
16:28:20.726583,-9,-3,0,-3,-3,4,19,-18
16:28:20.733577,-5,-3,-3,-2,-5,-12,-16,-7
16:28:20.749571,20,4,1,0,6,9,7,18
16:28:20.756562,-4,-1,-2,0,0,7,3,-16
16:28:20.771556,3,2,2,-1,3,6,2,9
16:28:20.778551,-4,-5,0,3,0,-3,-11,-8
16:28:20.786546,3,2,0,-1,1,-23,-16,-5
16:28:20.801537,0,-3,-3,-2,-2,16,36,14
16:28:20.809532,1,-1,-1,0,-1,-6,-5,-4
16:28:20.816528,-2,-1,-1,1,-1,-2,1,-6
16:28:20.831519,-2,0,0,-2,-1,-3,9,-7
16:28:20.839511,6,0,-2,0,2,13,18,35
16:28:20.853502,-2,2,-1,1,-1,-2,5,-2
16:28:20.861500,3,-1,1,2,-2,-8,-10,-3
16:28:20.869496,6,2,-1,1,4,8,-10,5
16:28:20.884488,-4,-1,-2,1,1,-2,3,-2
16:28:20.891482,-6,1,-1,0,0,0,1,-3
16:28:20.899473,1,0,0,2,1,-9,-14,6
16:28:20.921463,0,-1,1,-1,-3,1,1,1
16:28:20.922462,3,0,-2,-1,-6,-13,-6,-4
16:28:20.929458,4,3,0,3,3,22,44,5
16:28:20.936454,3,3,3,2,3,19,19,13
16:28:20.951442,-2,3,-2,-1,2,23,-3,-5
16:28:20.959437,3,-1,-3,-3,0,7,3,10
16:28:20.974429,-4,-2,0,-2,-3,1,6,-7
16:28:20.974429,-5,-4,0,-4,0,-5,1,-7
16:28:20.989418,7,-3,-1,-4,-6,-13,-14,-6
16:28:20.996417,-8,-3,-3,-1,0,-14,-24,3
16:28:21.011408,-1,-2,0,-1,3,8,-5,-8
16:28:21.019402,2,-2,-4,0,-4,1,10,1
16:28:21.034392,-3,-2,2,2,3,-20,-24,-4
16:28:21.034392,-5,-4,-2,1,-2,-2,6,-13
16:28:21.049381,-3,-3,-5,-5,-7,-9,-9,3
16:28:21.056380,4,-4,-3,-1,3,0,-5,-3
16:28:21.071371,-1,-1,1,2,3,1,-30,9
16:28:21.079366,0,0,0,-2,1,5,-1,-5
16:28:21.094355,-5,-4,-3,-3,-1,-1,13,-15
16:28:21.094355,-3,-2,1,-1,-3,-7,-9,-20
16:28:21.109345,6,-4,0,-2,2,4,-3,-3
16:28:21.116343,-4,0,0,0,0,-7,-2,-6
16:28:21.139329,3,3,1,0,0,-1,-12,6
16:28:21.139329,-2,-4,3,-3,1,-4,-20,-4
16:28:21.154317,6,2,-1,-2,1,6,13,11
16:28:21.169308,4,-4,-3,-2,-1,3,-3,0
16:28:21.169308,-8,-1,-2,2,2,-5,-23,-19
16:28:21.176306,1,-2,-2,-3,4,-6,-14,12
16:28:21.199291,1,2,1,0,4,14,5,-4
16:28:21.199291,-12,0,0,1,-2,-6,7,-5
16:28:21.214280,4,1,2,3,-1,-2,-11,5
16:28:21.215279,-4,-2,-1,-1,1,-2,-4,-8
16:28:21.229274,6,5,3,2,3,6,7,15
16:28:21.236268,1,6,-1,-1,0,-4,-10,7
16:28:21.251257,-11,-3,-3,0,-1,-6,-9,-16
16:28:21.259253,-2,-1,-3,-1,2,8,17,18
16:28:21.281242,-10,0,-2,-3,-3,-7,-8,-13
16:28:21.282239,2,0,0,0,4,18,21,-9
16:28:21.289237,-1,1,-2,1,-3,-3,2,-4
16:28:21.296233,-4,-1,-3,-2,-1,-4,-6,-5
16:28:21.311220,3,2,0,4,-2,4,0,6
16:28:21.319219,3,-1,1,0,3,5,3,7
16:28:21.334206,8,0,1,1,-3,2,9,10
16:28:21.335205,-1,-5,-3,-1,-4,0,8,8
16:28:21.349197,3,-3,-1,-1,1,2,-6,-7
16:28:21.356193,0,2,0,-4,3,16,15,24
16:28:21.379178,-8,-2,0,-1,-4,-4,-6,-15
16:28:21.379178,-6,-1,-4,-3,-2,7,-9,-10
16:28:21.394169,-8,-2,-2,-1,1,-10,7,-14
16:28:21.394169,1,1,-1,-3,0,-2,4,4
16:28:21.416158,5,-1,-2,-1,-4,7,0,4
16:28:21.417158,-2,-5,-7,-3,1,7,4,-6
16:28:21.431147,-3,-3,-3,-1,-2,-17,-2,4
16:28:21.439145,-2,0,0,1,-1,-9,-2,4
16:28:21.454135,-7,-1,-3,-2,0,-1,4,-1
16:28:21.454135,6,1,2,1,-1,7,26,23
16:28:21.469126,-1,-4,-1,-6,1,4,2,1
16:28:21.476120,-7,-3,-1,-1,-1,-8,0,-1
16:28:21.492109,13,3,2,-2,3,4,-6,26
16:28:21.499105,-5,-3,-3,-1,-4,-4,-3,-6
16:28:21.514096,2,0,0,0,-5,-7,0,6
16:28:21.514096,1,1,-2,-2,1,7,22,28
16:28:21.529086,-1,-1,0,-3,-2,0,3,-1
16:28:21.537085,-3,-3,-4,-1,1,1,-3,-4
16:28:21.552074,2,0,-1,0,2,0,3,2
16:28:21.559071,-3,-6,-2,-1,-2,0,15,-11
16:28:21.574061,-6,-5,-1,-3,-1,-37,-29,-1
16:28:21.575061,0,-1,-2,0,-2,0,-3,-1
16:28:21.589052,-2,-1,1,-3,-4,-15,-10,-11
16:28:21.596047,5,0,-1,0,2,2,5,20
16:28:21.611038,-6,-2,-3,1,0,-3,1,-3
16:28:21.627027,-5,-1,1,-3,4,-11,-26,12
16:28:21.634025,-2,-3,-1,1,-1,8,20,-9
16:28:21.635021,-4,0,3,1,1,0,0,-4
16:28:21.649015,-7,-2,-1,-2,-2,0,7,-12
16:28:21.657007,-1,2,2,-1,-3,-22,0,0
16:28:21.671998,-2,-1,-1,0,-1,-4,-7,-6
16:28:21.678997,0,-2,-4,-3,5,19,83,29
16:28:21.693988,4,-2,3,-2,-3,-3,-18,-6
16:28:21.701980,-5,-4,-2,-1,-7,-14,-3,-10
16:28:21.708976,-2,-2,-2,-2,-2,-3,-7,0
16:28:21.716970,-4,-3,-2,-2,-3,-6,-9,-5
16:28:21.731962,2,2,-1,0,1,19,10,6
16:28:21.738960,-4,-4,-1,-3,-3,0,-8,-7
16:28:21.753951,-5,0,-1,1,2,-1,2,-10
16:28:21.761944,9,3,1,-5,1,1,3,11
16:28:21.768941,-4,-3,-3,-1,-5,-5,-3,-6
16:28:21.775936,-3,-1,-3,1,3,-1,-5,-8
16:28:21.791924,8,1,3,3,2,7,13,8
16:28:21.798923,-7,-2,-1,1,-1,-4,-7,-6
16:28:21.813914,-1,-4,1,2,-1,3,6,1
16:28:21.821906,0,-1,0,0,7,19,11,4
16:28:21.836897,-1,3,1,-2,-3,-5,-5,-10
16:28:21.836897,3,-1,-3,-3,1,11,45,9
16:28:21.851888,-4,-5,1,-1,0,-5,-39,-15
16:28:21.858886,-4,0,-2,1,0,3,5,3
16:28:21.873877,5,-4,-1,-1,2,-2,-12,-5
16:28:21.881869,-10,-3,-1,-3,-3,4,10,-12
16:28:21.903859,5,1,-1,-3,-6,-10,-3,13
16:28:21.904858,-7,0,0,1,0,-5,-2,-8
16:28:21.911851,-8,-3,-1,-2,2,5,-19,-2
16:28:21.918849,-3,-1,-2,-2,1,7,-7,-7
16:28:21.941834,0,-2,1,0,0,0,-1,2
16:28:21.941834,3,-1,0,-1,3,-3,-6,-1
16:28:21.956823,-2,-2,-1,-1,0,-1,-1,-3
16:28:21.956823,2,-1,-1,0,-4,-6,-11,4
16:28:21.971814,6,-4,-1,-4,-4,-5,-3,1
16:28:21.978812,-10,-7,-3,-3,-7,-7,-5,-3
16:28:21.993803,-2,-2,3,3,-2,1,-3,-4
16:28:22.001797,-4,-3,-2,-2,-3,-10,-11,-2
16:28:22.031780,-5,1,-4,-3,-5,2,-13,-15
16:28:22.031780,-3,-5,-5,-1,-8,-35,-7,-10
16:28:22.032776,10,2,2,2,7,13,23,9
16:28:22.038775,-4,0,2,0,2,-2,-11,-8
16:28:22.053765,2,2,4,-1,4,2,-36,7
16:28:22.061758,-12,-1,-5,-1,1,1,21,11
16:28:22.083748,-6,-3,-3,-1,1,-7,-18,-10
16:28:22.084747,2,2,2,0,0,10,13,18
16:28:22.091740,-1,3,2,-1,0,0,3,0
16:28:22.098737,-2,-5,-5,-4,0,12,-5,-2
16:28:22.113726,-1,-2,-4,-1,-1,-2,-11,2
16:28:22.121724,-3,1,-1,5,-1,-2,22,-13
16:28:22.136713,3,2,-1,-1,1,2,10,8
16:28:22.136713,-4,-2,-2,0,-3,-7,3,-3
16:28:22.151706,-3,4,-1,0,4,12,35,13
16:28:22.158699,-4,-2,-3,-4,1,-10,-13,-5
16:28:22.181684,1,-4,0,-2,-4,-6,-10,-13
16:28:22.181684,-4,-2,-6,-2,-1,-6,1,-1
16:28:22.196675,-7,-1,-2,1,0,4,-10,-4
16:28:22.196675,1,2,1,1,1,-12,11,10
16:28:22.211669,-3,0,-2,2,-2,-4,-2,-6
16:28:22.219661,-1,-1,2,-1,2,-3,-13,-3
16:28:22.234651,1,-3,-4,-4,-5,-2,12,15
16:28:22.249647,0,-3,-4,-1,-1,-2,0,-1
16:28:22.256641,1,1,-3,-3,-5,-4,-16,-2
16:28:22.256641,-1,-1,-2,-1,-1,5,2,-1
16:28:22.271632,2,-3,1,-3,0,-4,-3,6
16:28:22.278625,8,0,-2,1,4,3,-8,2
16:28:22.293616,12,0,0,-1,-3,9,27,3
16:28:22.301614,0,2,1,0,-1,6,-3,-2
16:28:22.316605,7,0,1,0,2,3,1,6
16:28:22.316605,-3,3,1,1,-3,-2,-6,-4
16:28:22.338589,-1,-1,-6,-3,-5,0,-9,-12
16:28:22.339590,-1,3,-1,0,0,-1,6,10
16:28:22.354581,-3,-4,-3,0,-5,0,-3,-4
16:28:22.361577,-9,-6,-4,-3,-2,-4,-11,-19
16:28:22.376568,1,-1,2,-6,0,-9,-16,2
16:28:22.376568,9,0,0,2,-1,-5,-27,-1
16:28:22.391559,-7,-6,-1,2,-2,-1,11,4
16:28:22.399553,-6,-3,-2,-3,-3,-6,-5,-10
16:28:22.414546,6,0,1,-2,0,-4,18,12
16:28:22.421537,-1,-1,-1,1,1,1,-3,-3
16:28:22.436531,-1,-2,-5,-4,-2,0,-5,-5
16:28:22.436531,-1,0,-3,-3,0,-3,-8,-3
16:28:22.451521,-3,-1,0,-4,-3,-5,1,1
16:28:22.458522,3,-2,0,0,4,6,-5,0
16:28:22.474507,11,1,-1,2,-2,18,13,3
16:28:22.481503,0,4,3,0,2,-3,7,3
16:28:22.496494,-6,-2,-4,0,1,2,-7,-10
16:28:22.497490,0,0,2,-1,-3,-10,6,7
16:28:22.511481,1,0,-2,-1,0,-2,5,-7
16:28:22.519479,-10,-7,-7,-4,-4,-5,12,-2
16:28:22.534468,9,1,1,2,1,0,0,16
16:28:22.541463,-6,-3,0,-1,-4,-6,-5,-12
16:28:22.556457,5,5,2,2,-1,-6,-17,7
16:28:22.557453,12,-2,3,-1,4,10,17,4
16:28:22.571448,8,0,0,1,3,7,-2,13
16:28:22.578443,-4,-2,-4,-4,-3,7,11,-8
16:28:22.594433,-1,5,2,4,1,-1,0,0
16:28:22.601429,-1,0,1,1,2,-3,-1,2
16:28:22.616420,1,-1,0,-1,-3,-2,-4,-2
16:28:22.624415,0,-1,-1,0,7,2,-37,-1
16:28:22.631411,-9,-2,-3,-5,-5,-2,0,1
16:28:22.639406,-3,-5,-3,-4,0,5,-5,-3
16:28:22.654394,-2,-3,0,1,4,5,-6,-8
16:28:22.661392,-5,-4,-3,-2,-3,-5,-1,-4
16:28:22.676383,1,-3,-3,-2,-4,-4,-3,-3
16:28:22.684375,-6,0,-2,-2,-4,5,32,-5
16:28:22.699366,-2,0,1,0,5,7,-18,-8
16:28:22.699366,2,-2,-1,1,-3,2,4,-1
16:28:22.714356,-1,1,-1,1,-1,-1,-8,-8
16:28:22.721354,1,1,2,-2,-1,-14,-8,3
16:28:22.744338,-7,-4,1,-2,-4,-7,0,-7
16:28:22.744338,-5,-5,1,2,1,-3,-8,-11
16:28:22.759329,0,-1,1,-5,0,5,-8,-6
16:28:22.759329,-3,-2,-1,4,5,4,0,4
16:28:22.774319,3,2,0,1,1,8,8,-9
16:28:22.781315,-7,-3,1,2,0,-1,2,-10
16:28:22.796309,-5,-2,1,-3,-6,-13,-6,-16
16:28:22.804301,-2,-2,-3,-1,1,-1,-3,-4
16:28:22.826291,-3,-5,-2,0,-4,-5,8,0
16:28:22.827290,7,-1,1,-1,0,-5,22,16
16:28:22.834286,3,3,2,3,8,35,-3,6
16:28:22.841281,2,1,2,1,2,4,17,9
16:28:22.864265,-4,-3,-6,-7,-3,-8,-16,-5
16:28:22.864265,-1,-1,-1,-4,0,3,1,2
16:28:22.879256,-4,-1,-1,-2,6,1,5,-5
16:28:22.879256,1,-3,5,3,7,2,0,4
16:28:22.894249,-15,-5,-1,-1,-2,-13,-19,-18
16:28:22.901241,0,1,-3,1,0,2,10,13
16:28:22.916234,-10,-6,-4,-4,-6,-11,-13,-17
16:28:22.924230,7,-4,-2,-3,0,2,3,-7
16:28:22.939218,2,-1,2,1,3,16,9,2
16:28:22.939218,-4,-1,3,0,-4,-6,-5,-11
16:28:22.954212,6,0,-4,-2,0,0,4,3
16:28:22.969200,-9,-1,-4,0,-3,2,25,-11
16:28:22.976197,0,-2,2,-1,-5,-4,-16,-4
16:28:22.984194,-7,-1,-4,-2,0,5,6,-16
16:28:22.999184,0,3,1,0,-2,-3,-5,0
16:28:23.000182,6,1,-4,1,-3,-3,8,-4
16:28:23.014175,5,4,1,0,-4,-9,-8,-1
16:28:23.021168,-10,-3,-2,-5,-3,-36,-16,-10
16:28:23.036159,7,-1,-1,1,0,-13,-28,10
16:28:23.051150,-5,-2,1,0,2,-3,2,-8
16:28:23.059147,-1,-1,0,-1,0,-3,-1,-5
16:28:23.059147,0,-4,0,-1,2,3,-10,0
16:28:23.074138,1,-4,-3,0,-4,-2,-5,2
16:28:23.081130,-5,-5,-2,-1,-1,0,5,-17
16:28:23.096122,0,-1,-7,-4,1,9,-7,-2
16:28:23.104120,-3,-2,-1,-3,-1,-11,-32,-8
16:28:23.119111,3,-1,1,-1,1,13,-2,-11
16:28:23.120107,-2,2,-3,-1,-1,-2,3,-2
16:28:23.134101,-3,-3,-2,-4,-11,-6,-3,-4
16:28:23.141097,-4,-1,2,1,0,7,5,11
16:28:23.157084,-1,0,-1,-1,-1,-14,-6,-12
16:28:23.164083,4,1,2,0,3,4,10,6
16:28:23.179074,1,0,2,-1,-4,-14,-30,-1
16:28:23.180072,1,-1,1,4,3,9,11,3
16:28:23.194064,-8,-3,-1,-2,-4,-27,4,-14
16:28:23.202059,15,0,0,-2,2,10,12,22
16:28:23.217048,6,-3,-7,-3,-4,-4,11,6
16:28:23.224046,9,4,3,3,-3,-13,-7,3
16:28:23.239037,-3,0,-3,-3,-3,-3,-5,-6
16:28:23.240039,-2,1,3,1,2,-1,8,-2
16:28:23.262020,-2,-1,1,0,0,-1,-1,-2
16:28:23.262020,-9,2,0,1,-3,1,-1,-6
16:28:23.277010,-3,3,-4,4,-3,5,2,-6
16:28:23.284009,1,-3,-3,-8,-2,-5,-7,3
16:28:23.299000,5,2,0,2,2,1,8,-6
16:28:23.300004,15,1,2,1,6,31,19,22
16:28:23.313991,0,0,-3,2,-2,-10,-23,12
16:28:23.321986,-8,-3,-1,-3,-3,-5,-4,-15
16:28:23.336975,14,2,-3,-1,1,8,25,17
16:28:23.343972,-5,-1,1,-2,-1,-7,-11,-14
16:28:23.366958,-6,-4,-3,1,-3,-3,-14,-14
16:28:23.366958,6,1,-1,-1,-1,-1,11,24
16:28:23.373954,1,-1,-1,0,-9,-28,-61,-18
16:28:23.381949,0,0,3,3,5,18,7,8
16:28:23.396937,0,2,-2,-2,-3,-7,-3,-10
16:28:23.403935,-2,-1,1,-1,-1,-1,3,-1
16:28:23.418926,4,-2,1,-2,-5,-2,-17,-5
16:28:23.419925,7,4,-2,2,0,3,-11,1
16:28:23.433917,-3,0,4,-1,-5,-3,-6,-5
16:28:23.441909,6,-1,-1,-1,-2,-6,-38,-18
16:28:23.456899,-7,-2,-3,1,1,10,18,0
16:28:23.463898,-7,-5,-7,-5,-2,-1,2,-2
16:28:23.478889,-1,-6,-2,-3,-8,3,-14,-7
16:28:23.479886,3,2,4,1,0,-5,7,13
16:28:23.493880,-2,-4,-3,0,-2,-6,-12,-12
16:28:23.501877,1,-2,-2,-1,2,25,57,5
16:28:23.516866,1,1,0,1,-1,9,-2,-1
16:28:23.523861,-5,-1,-2,0,0,-12,5,-10
16:28:23.538852,4,-3,-5,-5,-3,-3,-13,3
16:28:23.539851,-3,-3,3,2,-2,-12,-7,0
16:28:23.561835,-3,-5,-3,-4,0,-5,-2,-3
16:28:23.561835,-2,0,0,-2,0,-6,-10,0
16:28:23.576826,-3,0,2,1,-1,-20,-26,-3
16:28:23.583824,-4,-4,0,-4,-2,1,7,0
16:28:23.598815,2,-3,-1,-1,0,-2,7,-2
16:28:23.606810,-3,-1,2,0,-2,6,8,-3
16:28:23.621800,-3,-2,0,0,0,4,-10,-3
16:28:23.621800,-3,-4,-1,-3,-3,-1,2,-7
16:28:23.636792,10,2,0,2,4,-11,10,12
16:28:23.643787,1,-2,-3,0,0,6,12,6
16:28:23.666774,-3,-4,-2,0,-1,-3,-4,-1
16:28:23.673768,1,0,0,-2,0,-1,4,1
16:28:23.681762,-1,-3,-1,1,-2,-2,-6,-4
16:28:23.681762,-8,-1,2,1,4,-2,-8,-1
16:28:23.696752,-8,-5,-4,-1,-5,0,0,-18
16:28:23.703749,-1,-1,-1,-1,-1,1,13,11
16:28:23.718739,-2,-2,-4,-3,-3,-12,-20,5
16:28:23.726736,-1,1,1,1,2,-2,13,-1
16:28:23.741724,1,-2,-3,-1,3,15,10,3
16:28:23.741724,-3,0,3,-4,-2,2,-1,-3
16:28:23.756718,-8,-2,-3,-3,-5,0,-2,-9
16:28:23.763710,-4,0,2,2,-3,-2,-11,1
16:28:23.779700,6,-3,-1,1,2,3,2,-4
16:28:23.786699,-6,1,1,-2,-3,-11,-21,-6
16:28:23.801688,-7,-2,-1,-1,-2,4,4,-14
16:28:23.801688,-2,3,1,0,2,2,11,5
16:28:23.816681,-1,0,0,-1,-1,0,8,11
16:28:23.823674,-6,-1,-3,-2,-3,1,-2,-6
16:28:23.839676,1,0,-1,-1,-5,-3,-2,-3
16:28:23.846662,0,2,0,-1,2,2,-3,0
16:28:23.861650,-17,-10,-6,-5,-4,-5,-6,-15
16:28:23.861650,-10,-5,-11,-7,-3,-2,-10,-5
16:28:23.883637,3,0,2,-1,1,2,-28,2
16:28:23.884637,0,-3,-1,0,-3,-5,8,-3
16:28:23.898628,4,-2,-4,-4,0,19,15,20
16:28:23.906626,12,3,-2,0,-4,-6,4,17
16:28:23.921614,1,0,-2,1,-1,4,-4,-4
16:28:23.921614,-1,2,0,-4,-3,0,-2,-3
16:28:23.943599,2,-1,2,-1,-1,6,6,0
16:28:23.944599,-2,-2,1,-1,-6,-4,-1,-3
16:28:23.959591,-3,-2,-1,-1,-1,1,-4,-5
16:28:23.974583,-8,-4,-4,-5,-2,-2,4,4
16:28:23.981579,-3,-2,-3,-4,-9,-11,-10,-8
16:28:23.981579,-14,-4,-3,-6,-6,-5,-36,-20
16:28:23.996570,-6,-1,2,2,-4,-1,6,3
16:28:24.004566,0,0,0,2,1,1,1,-5
16:28:24.019556,-3,-1,-3,-3,0,-4,1,-1
16:28:24.026552,1,2,0,1,4,11,5,-1
16:28:24.041543,0,-1,1,-1,4,14,13,3
16:28:24.042543,-1,-3,-1,-3,2,1,1,5
16:28:24.056533,-10,-7,-4,-5,0,-11,-32,-9
16:28:24.064526,-10,-2,-3,-4,-3,-9,-17,-8
16:28:24.079516,-12,-4,-1,1,1,0,8,-3
16:28:24.094509,2,-1,0,0,3,1,-2,-2
16:28:24.101506,2,0,2,3,2,1,4,4
16:28:24.102502,-5,-1,1,0,2,6,7,9
16:28:24.116496,-6,0,1,0,-1,-5,-16,-15
16:28:24.124491,1,0,1,2,5,3,4,11
16:28:24.139479,1,4,2,0,1,-1,-2,-4
16:28:24.146478,-2,0,-1,-3,-1,-5,-8,-2
16:28:24.161469,2,-1,-2,-3,-4,-3,-7,9
16:28:24.162468,9,5,4,4,5,8,30,8
16:28:24.176459,-4,1,1,-1,-2,-3,-1,-5
16:28:24.199444,-5,-1,0,0,0,1,-6,-6
16:28:24.199444,-3,0,-1,0,3,0,-6,0
16:28:24.206441,1,-1,-1,-1,1,-4,-2,-8
16:28:24.221432,0,-2,-2,-1,-4,2,0,-1
16:28:24.222428,0,-3,-2,-1,0,-2,-1,-8
16:28:24.236423,0,3,0,4,-2,-10,-9,-5
16:28:24.244415,5,4,2,0,1,2,-6,9
16:28:24.259405,1,2,0,-3,2,-5,-12,2
16:28:24.266404,-4,-5,-5,-3,-7,-3,1,-4
16:28:24.289387,-6,-1,-2,-2,-2,1,0,-2
16:28:24.289387,0,0,-1,1,-4,-3,-12,-4
16:28:24.296385,-4,-3,0,1,1,5,-2,-5
16:28:24.304378,-5,-3,1,0,6,17,12,1
16:28:24.319368,-1,-4,-4,-1,-3,5,-3,-8
16:28:24.326367,-7,0,-1,2,0,-1,2,-9
16:28:24.341358,0,0,0,-1,1,-3,-10,-6
16:28:24.342355,1,-1,1,3,-2,-1,18,-2
16:28:24.356346,1,-3,-2,0,-2,-2,5,3
16:28:24.364341,-4,-2,-2,-1,-1,0,-9,-13
16:28:24.379335,-3,-5,-3,0,-3,1,-5,0
16:28:24.386330,-7,0,0,-3,-1,-6,-20,-13
16:28:24.401321,0,1,-1,-1,2,6,25,7
16:28:24.409314,-6,-1,2,2,-2,-10,-19,-18
16:28:24.416312,0,-1,-1,0,-1,2,-6,-4
16:28:24.424304,-1,1,2,1,2,2,2,2
16:28:24.439298,-4,1,-3,-2,-3,-8,-2,-3
16:28:24.446293,5,5,1,2,3,11,13,12
16:28:24.461284,-1,4,2,-1,-4,-6,-3,0
16:28:24.462281,-4,0,-1,2,1,1,2,8
16:28:24.476274,7,-4,-2,-1,3,-3,12,26
16:28:24.484270,-2,-7,-2,-4,-2,-2,3,-1
16:28:24.499261,-3,-3,-1,-2,-1,-2,-3,-9
16:28:24.514251,-7,-4,-4,-3,-6,-9,-6,-8
16:28:24.521246,7,2,2,4,6,16,23,18
16:28:24.529239,-5,0,-1,-2,1,-1,-20,-2
16:28:24.536234,-14,-3,1,1,-3,-3,1,-1
16:28:24.544230,-5,-2,2,-1,0,-7,-13,-11
16:28:24.559224,-5,-1,-2,-3,-4,-4,-8,-4
16:28:24.567218,-5,-4,-2,-4,-4,-4,3,-10
16:28:24.581208,-5,0,-1,-1,-3,0,11,3
16:28:24.596201,-4,-3,-4,-4,-1,-3,1,2
16:28:24.597198,-9,-3,0,-1,0,3,-15,-5
16:28:24.604194,0,-1,0,-2,0,1,0,-1
16:28:24.620185,-4,2,0,1,-1,-7,-11,-10
16:28:24.626180,11,0,-1,-1,-2,5,25,5
16:28:24.641171,-9,0,1,2,6,12,2,-2
16:28:24.649169,-1,0,-1,-1,5,3,4,7
16:28:24.664157,2,1,-2,1,-4,-7,-6,-2
16:28:24.664157,-2,0,0,1,2,-4,15,15
16:28:24.679147,-1,-3,0,-1,-2,-1,-7,-2
16:28:24.686144,-3,-4,0,0,4,5,-5,-3
16:28:24.702135,0,-4,-2,2,-4,4,24,4
16:28:24.709132,3,0,3,-1,1,-1,-6,7
16:28:24.724119,9,0,-3,1,2,6,17,7
16:28:24.724119,-13,-2,1,2,3,1,7,-5
16:28:24.746106,3,-1,2,0,-6,-11,-7,-1
16:28:24.747105,0,1,-1,1,0,1,2,-3
16:28:24.769095,3,0,3,-1,-2,-4,7,0
16:28:24.770091,0,-1,-1,0,0,6,5,9
16:28:24.784085,-9,-3,0,0,-1,-8,-22,-26
16:28:24.785082,4,4,2,4,7,11,25,22
16:28:24.806069,-3,1,0,1,-3,1,-9,-15
16:28:24.807068,1,0,-4,-4,1,-4,-11,0
16:28:24.829058,3,1,-1,0,-3,-1,9,4
16:28:24.830054,-3,-1,-1,-1,1,0,1,-1
16:28:24.844049,-7,-2,0,1,1,-2,-6,-8
16:28:24.845045,-5,-4,-3,-1,-5,-30,-39,-9
16:28:24.859040,-5,-2,0,1,-1,5,17,0
16:28:24.867031,-5,-3,-3,-2,-3,-3,-4,-4
16:28:24.882025,-8,-3,1,-1,-1,2,7,-3
16:28:24.889021,-6,-3,-1,-2,-2,-7,-17,-5
16:28:24.904012,17,2,1,1,1,4,14,12
16:28:24.905008,2,4,3,6,4,1,-3,-2
16:28:24.919003,-4,0,0,-3,0,0,-4,-3
