timestamp,emg1,emg2,emg3,emg4,emg5,emg6,emg7,emg8
16:24:43.082558,-1,-3,-2,-1,-1,-1,-2,-3
16:24:43.096549,-3,-3,-1,-1,2,1,-2,-4
16:24:43.098548,-1,-4,-1,1,-6,1,-1,0
16:24:43.111540,-1,-2,0,-4,-1,-4,0,0
16:24:43.119536,-2,0,2,2,-1,-1,-3,0
16:24:43.134527,1,-2,-2,0,-1,-1,-1,-1
16:24:43.141523,-2,0,-4,0,-1,-2,0,-3
16:24:43.156511,-4,0,-1,1,-3,-3,-3,2
16:24:43.164506,-1,-5,-4,-2,-3,-3,-1,-1
16:24:43.171503,-2,-2,0,-1,2,-2,0,0
16:24:43.179498,0,-1,-1,-1,2,2,0,0
16:24:43.194488,0,1,1,2,-2,-1,-1,0
16:24:43.202486,-1,-1,-2,3,1,-1,-1,-2
16:24:43.216476,-2,-5,-2,0,-1,1,0,-4
16:24:43.217475,2,-1,-1,0,-3,0,-3,-1
16:24:43.232465,1,-2,-1,-1,0,-1,-5,0
16:24:43.239460,-1,-2,-2,-3,-5,0,-1,0
16:24:43.254453,-1,3,-3,2,-2,0,0,-2
16:24:43.261448,0,-3,-1,-3,-4,0,0,-3
16:24:43.276446,-1,0,3,-1,-1,1,-1,-1
16:24:43.277437,2,0,-1,-1,-1,1,1,1
16:24:43.291430,-3,-2,-1,-1,-7,-3,0,0
16:24:43.299424,-1,-1,-1,1,-1,2,-2,-1
16:24:43.314414,-2,-1,1,-1,3,-2,-3,-1
16:24:43.321411,-3,1,-2,-2,-3,-5,-3,-2
16:24:43.336402,0,-2,1,2,-4,1,3,5
16:24:43.337401,0,0,0,-3,-3,0,-2,-2
16:24:43.352402,-3,-4,3,0,1,-2,-1,0
16:24:43.359388,-2,0,-2,-5,-4,-4,-1,-2
16:24:43.382375,-2,-1,2,-2,-3,2,-2,-2
16:24:43.382375,2,1,-2,-1,-2,-1,-1,1
16:24:43.397364,-3,0,-2,-2,1,0,0,-4
16:24:43.404360,-4,-1,1,-1,-1,1,-5,2
16:24:43.412354,-2,-1,0,-1,-1,2,-1,-2
16:24:43.419350,-2,-3,-1,1,2,-3,0,-1
16:24:43.434341,-2,2,-1,-1,-2,0,-3,-1
16:24:43.441336,1,0,0,1,-3,-2,2,2
16:24:43.456330,0,-3,-1,0,1,1,-1,0
16:24:43.464323,0,-1,0,0,-4,-2,2,2
16:24:43.479314,-2,-3,-3,-4,-2,2,-1,0
16:24:43.480313,0,0,-2,-1,-2,1,1,-1
16:24:43.494304,-1,1,-1,-3,-3,-1,2,1
16:24:43.502299,-2,-1,0,-1,0,1,1,3
16:24:43.517292,-3,-3,-1,-1,-2,0,0,-3
16:24:43.524285,-1,1,1,-3,1,-1,0,-1
16:24:43.539276,-2,-1,0,0,0,-2,-1,0
16:24:43.540276,1,-1,0,-1,-1,-1,-2,-1
16:24:43.554266,-2,-1,-2,-1,0,-1,-2,-1
16:24:43.562274,0,-1,1,-2,-3,-4,1,4
16:24:43.577252,-1,1,0,-3,-1,-2,0,-2
16:24:43.584249,0,0,-4,-3,1,-1,2,-3
16:24:43.606234,-3,0,-1,-2,0,0,1,-1
16:24:43.614230,0,-3,-3,0,1,2,1,1
16:24:43.615230,-3,0,0,-2,-2,-3,0,1
16:24:43.629222,1,-1,-2,1,-2,-1,-3,1
16:24:43.637216,2,-1,-1,-1,0,-2,-1,-1
16:24:43.644211,-1,0,-1,1,-1,1,0,4
16:24:43.659202,-3,2,-2,-1,1,2,0,-2
16:24:43.660202,-4,-1,-2,1,-1,-4,1,2
16:24:43.674200,-1,1,-2,-2,0,-1,-1,0
16:24:43.689184,-1,-1,-2,-3,1,-1,1,-1
16:24:43.697180,2,1,0,-1,0,0,-2,-1
16:24:43.704185,0,5,-1,1,2,-3,1,-1
16:24:43.727162,-4,2,-1,-1,2,0,-2,-3
16:24:43.727162,-1,-5,-2,-1,-1,-1,0,3
16:24:43.734157,-1,1,-1,1,0,-3,-2,-5
16:24:43.742153,-1,-1,-4,-1,0,1,2,1
16:24:43.757142,-1,-3,0,-4,1,-1,-2,0
16:24:43.764151,-1,1,1,-4,-2,0,-4,-1
16:24:43.787123,0,-2,-2,1,0,2,0,1
16:24:43.787123,-2,-2,0,-1,0,-5,-2,-1
16:24:43.794120,3,1,-1,-2,-1,-1,-2,-3
16:24:43.802116,-1,-1,0,-2,-1,-1,-2,0
16:24:43.817105,-2,-2,-2,-4,-1,-3,-3,-1
16:24:43.824102,0,-2,-3,-1,1,-1,1,-2
16:24:43.839091,-1,-4,-4,-5,-2,1,-3,-4
16:24:43.840091,2,-1,-2,0,-4,-1,-1,-1
16:24:43.854082,1,1,0,-1,0,-1,0,0
16:24:43.862079,-1,-2,2,0,1,1,2,1
16:24:43.877069,3,-2,1,0,1,-1,-3,-1
16:24:43.884066,0,-2,3,-2,-2,-1,-1,2
16:24:43.899055,2,-1,-1,-5,-6,-2,-3,3
16:24:43.900055,-2,0,-1,0,2,0,0,4
16:24:43.914046,-1,-5,-4,-2,-5,-1,-1,-3
16:24:43.922042,-2,1,2,0,-1,-2,-1,-3
16:24:43.937031,0,-1,0,-1,2,-1,-3,0
16:24:43.944028,-1,-3,0,1,-1,0,1,1
16:24:43.959017,-3,0,-3,-4,0,-3,-4,-1
16:24:43.960018,1,0,-1,-1,-2,1,0,0
16:24:43.974010,0,-1,0,2,-1,1,2,0
16:24:43.982004,-3,-1,-4,-4,0,-2,1,-1
16:24:43.996994,-1,2,-2,1,-4,-1,-3,1
16:24:44.003989,0,1,-3,0,2,1,-1,0
16:24:44.019981,0,4,2,0,-9,-4,-1,-2
16:24:44.019981,-1,0,0,1,2,-2,1,0
16:24:44.033973,-2,-1,-1,-1,-3,-1,-3,1
16:24:44.041967,-2,-2,-1,0,-2,2,0,-1
16:24:44.056958,-1,-2,-3,-1,-2,1,-1,-2
16:24:44.063954,0,0,1,-5,-3,0,-2,2
16:24:44.078944,-1,-2,-2,0,-2,0,-4,-1
16:24:44.079943,0,-3,0,1,-3,0,1,-2
16:24:44.094933,-3,-2,0,-1,-1,-3,0,-1
16:24:44.101930,-4,-4,-2,-1,1,-1,-1,-1
16:24:44.116922,1,-2,1,0,-5,0,0,-1
16:24:44.131911,-1,0,-2,-3,5,-2,2,0
16:24:44.138908,1,0,-2,-3,0,3,0,-1
16:24:44.139908,-3,-2,1,0,-3,-1,3,0
16:24:44.154897,0,-4,-4,-2,2,-2,-1,-3
16:24:44.161893,-3,1,-1,-1,0,-1,0,-2
16:24:44.184880,2,2,1,0,-1,-2,-1,2
16:24:44.184880,3,3,0,-1,-3,1,0,0
16:24:44.198870,-1,-1,-2,0,-2,0,0,-4
16:24:44.199870,1,0,-3,0,0,0,2,0
16:24:44.213861,-2,1,-3,1,-1,0,1,-1
16:24:44.221855,-2,-2,1,-4,-2,1,0,-1
16:24:44.236846,-2,1,0,2,4,0,0,-1
16:24:44.243843,1,1,-4,1,1,0,0,2
16:24:44.258833,-2,-4,-2,-2,-5,0,-2,-3
16:24:44.259835,-3,0,-2,-2,0,0,-1,-1
16:24:44.273825,-1,-2,-2,-2,0,-2,-1,1
16:24:44.281818,0,1,0,-1,-3,0,-1,0
16:24:44.296810,0,-1,-1,-5,-1,-3,-2,-3
16:24:44.304804,-3,-3,-2,-1,-4,-2,-1,0
16:24:44.319796,-1,2,-1,-2,-4,0,1,0
16:24:44.319796,0,0,-3,2,1,1,1,-3
16:24:44.334786,-2,-1,-3,-2,-1,-2,-3,2
16:24:44.341789,-3,1,1,-2,-1,-3,1,-1
16:24:44.356773,-3,-6,-1,-1,1,1,-4,-2
16:24:44.364768,-2,0,0,-3,1,3,0,3
16:24:44.379758,-1,-1,-2,0,-2,-1,-2,-1
16:24:44.386754,0,0,1,-1,1,-1,-1,-1
16:24:44.401745,0,0,1,-2,0,0,-1,-2
16:24:44.402744,-2,2,-4,0,4,-2,0,1
16:24:44.416736,0,3,0,0,-2,-1,-13,0
16:24:44.424733,-2,-2,-4,0,-1,-3,15,1
16:24:44.439728,3,0,0,0,-1,-5,-10,1
16:24:44.447719,-5,-1,-1,0,-5,-1,1,-6
16:24:44.461708,2,0,-1,-1,-3,-6,11,2
16:24:44.462707,-2,-3,0,1,-3,0,-4,-1
16:24:44.476699,-1,-2,1,0,6,0,3,0
16:24:44.491690,-2,-1,-3,0,1,-3,2,-1
16:24:44.499686,-2,1,0,-1,-4,-1,-1,0
16:24:44.506684,-2,-3,-1,-1,1,0,0,-2
16:24:44.529668,-4,3,-2,-1,-4,-1,-1,-2
16:24:44.529668,0,-1,2,-4,-3,1,0,-1
16:24:44.536663,2,0,1,0,1,-1,4,4
16:24:44.544656,0,-1,-4,-2,3,1,1,2
16:24:44.559654,-3,-3,-1,-5,0,-1,0,-1
16:24:44.566643,-1,0,1,0,-1,2,2,0
16:24:44.581635,-3,2,-1,0,-1,0,0,4
16:24:44.582634,-3,0,0,-2,-3,0,0,0
16:24:44.596626,-1,-2,2,0,-1,0,-5,0
16:24:44.604621,-1,-1,-1,-2,-6,-2,3,-2
16:24:44.619613,-1,0,-1,-2,-2,2,-3,0
16:24:44.626608,-1,0,-3,-1,0,1,4,-2
16:24:44.641598,-2,-4,-5,0,-8,-4,0,0
16:24:44.642597,-2,0,-3,-2,3,4,1,1
16:24:44.656590,-4,-1,-3,-1,-1,1,-1,-2
16:24:44.664583,1,-2,-3,0,-4,0,4,0
16:24:44.679574,-3,0,-4,-2,-1,1,0,1
16:24:44.686570,-2,0,0,-4,-3,-3,-1,-1
16:24:44.701561,-1,2,-4,1,0,-2,1,1
16:24:44.709556,2,0,2,0,6,3,1,3
16:24:44.717551,0,4,0,-4,-3,0,3,1
16:24:44.724546,-3,1,0,0,0,1,1,0
16:24:44.739537,0,-1,-1,0,-6,-1,-4,-3
16:24:44.747533,-2,0,-1,0,-1,0,1,2
16:24:44.761524,3,-5,-1,0,-1,-1,0,1
16:24:44.762524,-3,-3,-3,-2,-5,-4,0,0
16:24:44.776514,-3,-1,-5,0,1,-4,0,-2
16:24:44.784510,-5,0,0,-2,-1,0,3,0
16:24:44.799500,0,1,-2,0,-6,-5,5,0
16:24:44.806497,-1,-3,-3,-5,2,4,-7,-2
16:24:44.821486,-4,-2,-3,0,-3,-2,3,-1
16:24:44.822487,1,-3,-1,-1,0,1,2,3
16:24:44.837477,-2,-1,-4,0,-2,-4,-4,0
16:24:44.844474,-1,0,-1,0,0,-1,-7,2
16:24:44.859467,0,-3,1,-3,-1,-1,-1,0
16:24:44.867459,-2,-2,-1,2,-1,1,4,-2
16:24:44.889445,-4,-1,1,0,0,-3,4,-2
16:24:44.889445,1,2,-1,1,-3,0,-5,3
16:24:44.897439,1,-1,-1,-1,-3,0,-1,-4
16:24:44.904435,4,-3,1,-2,2,2,2,6
16:24:44.919426,-1,1,-2,2,0,-1,0,-2
16:24:44.927421,0,1,1,0,1,0,1,1
16:24:44.941425,-4,-2,-2,-1,-5,-5,0,-4
16:24:44.942412,-1,-2,2,2,1,1,1,2
16:24:44.957403,2,2,1,1,0,-3,-2,3
16:24:44.964398,0,-4,-3,-2,2,4,3,0
16:24:44.979390,-1,3,-2,1,-5,-2,0,0
16:24:44.987384,2,-4,-1,-1,3,0,1,1
16:24:45.002377,-1,1,0,-4,-1,1,1,-1
16:24:45.002377,-3,-2,-2,-1,-1,0,0,3
16:24:45.017368,1,1,-2,-5,-1,1,2,1
16:24:45.024361,3,1,-6,-8,-4,-2,0,-1
16:24:45.039354,0,1,12,11,3,2,-1,-3
16:24:45.047354,1,-3,-14,1,0,2,1,3
16:24:45.061339,-3,0,17,23,8,-4,-1,-2
16:24:45.062338,-1,1,0,-35,-20,-4,1,1
16:24:45.077331,2,9,29,42,13,-1,2,2
16:24:45.084325,-1,-3,-3,-14,34,4,1,-1
16:24:45.106313,3,2,-23,-88,5,-2,0,1
16:24:45.107310,-9,-8,-3,9,8,-3,-3,-8
16:24:45.121303,14,17,7,-73,-20,9,7,10
16:24:45.122303,-6,-14,-23,-1,-50,-14,-2,-2
16:24:45.137292,-3,-2,-3,-23,57,1,0,1
16:24:45.144292,-1,1,-48,-86,-5,0,1,1
16:24:45.159279,-16,-15,8,62,-18,-9,-11,-11
16:24:45.167276,5,8,-53,-115,-11,-3,3,5
16:24:45.182265,-12,-6,26,127,87,-4,-12,-15
16:24:45.189260,5,-2,-17,-128,-128,-59,0,7
16:24:45.197256,-26,-26,6,-83,127,49,-16,-25
16:24:45.204250,-2,-9,-80,-128,-128,-60,-3,0
16:24:45.220241,3,-17,-97,-128,-128,8,-11,-6
16:24:45.227237,7,30,127,127,127,127,19,6
16:24:45.242229,-27,-39,-9,67,127,1,-27,-23
16:24:45.242229,23,-1,73,-128,-128,-16,20,24
16:24:45.257218,-1,33,10,80,-128,-46,0,-1
16:24:45.264214,25,44,127,127,127,41,12,17
16:24:45.279204,-2,-5,-61,-128,11,44,18,9
16:24:45.287200,-8,-17,63,127,48,-14,-15,-8
16:24:45.302190,37,27,-42,-128,-128,1,32,30
16:24:45.309186,-48,-34,-33,127,127,7,-32,-33
16:24:45.324177,-3,-13,-10,-61,127,5,-12,-12
16:24:45.325176,11,23,-14,8,-79,9,12,11
16:24:45.339170,24,36,17,-60,36,23,9,13
16:24:45.347164,-20,-54,-39,13,45,-15,-9,-7
16:24:45.362154,6,13,2,-34,-32,10,8,7
16:24:45.369150,-11,-8,-6,-29,-36,-3,-9,-9
16:24:45.384141,-11,-22,-24,-64,-22,-12,-7,-11
16:24:45.385141,-7,-7,-9,-16,-6,-1,-2,-3
16:24:45.399132,5,3,4,7,18,10,3,0
16:24:45.414133,6,12,3,20,7,14,4,1
16:24:45.422119,0,30,13,-62,-128,-27,-6,-5
16:24:45.429115,-4,-6,-7,-49,-88,-10,0,2
16:24:45.445104,-44,-59,-16,127,85,-3,-14,-21
16:24:45.452100,50,106,64,125,26,27,11,8
16:24:45.459096,-10,-51,-36,12,-128,-46,0,6
16:24:45.467091,-66,-128,-105,-128,-128,-31,-13,-14
16:24:45.482081,-15,-60,-41,-128,125,50,-3,-7
16:24:45.490077,6,5,44,127,40,-11,4,10
16:24:45.512063,-97,-128,-128,-24,127,8,-14,-26
16:24:45.512063,20,9,-45,-128,-128,52,8,16
16:24:45.520057,67,127,127,-128,127,19,3,8
16:24:45.527054,4,44,68,-128,-128,21,-10,-9
16:24:45.549039,19,62,-6,-67,-114,-20,-5,-1
16:24:45.550039,10,15,76,66,3,-10,3,0
16:24:45.564030,-7,-47,-29,-38,90,13,9,3
16:24:45.565030,28,77,50,28,-12,32,7,7
16:24:45.579021,-3,5,1,-18,-122,5,-6,-8
16:24:45.587015,0,-13,-50,-127,-5,21,2,1
16:24:45.602008,-8,-1,12,23,2,-5,-7,-8
16:24:45.609003,-60,-103,-50,127,46,-3,-18,-28
16:24:45.631988,2,-19,-48,-25,-128,-18,2,8
16:24:45.631988,3,-22,-18,-48,-128,-53,1,7
16:24:45.638984,16,36,59,127,-51,3,-4,-1
16:24:45.646980,5,14,8,-70,127,-9,1,1
16:24:45.661970,-8,-35,-23,-4,-50,-8,-2,0
16:24:45.669965,-21,-54,-46,-38,-36,-24,-9,-8
16:24:45.684955,9,-1,-29,-128,-50,-17,10,10
16:24:45.691952,-81,-128,-118,-19,117,-27,-30,-35
16:24:45.698946,21,25,-6,-116,-29,-21,0,9
16:24:45.706941,-6,-16,1,127,-27,-6,2,1
16:24:45.721933,-10,-21,-15,23,-29,-7,-2,-3
16:24:45.728933,6,13,12,73,34,6,2,4
16:24:45.743920,-45,-89,-61,25,127,32,-7,-14
16:24:45.751914,-26,-37,-6,88,127,19,-10,-13
16:24:45.758911,-12,-28,-16,43,127,28,-6,-3
16:24:45.766907,8,16,5,-57,-67,3,4,4
16:24:45.781897,-27,-48,-34,-15,-26,-21,-10,-12
16:24:45.789890,38,76,58,89,127,22,11,16
16:24:45.804884,-7,0,13,-57,-128,-15,-5,-6
16:24:45.819873,7,-5,0,55,-62,29,3,8
16:24:45.819873,23,36,35,54,112,7,5,7
16:24:45.826867,29,54,26,-16,-128,-58,1,5
16:24:45.841858,-2,-1,2,-32,-128,9,-4,-5
16:24:45.849853,-17,-42,-4,43,127,15,-1,-6
16:24:45.864845,1,-22,-31,-38,-128,31,4,3
16:24:45.871840,4,25,21,-80,127,23,1,-1
16:24:45.879835,6,28,48,22,-72,-1,1,0
16:24:45.886831,-17,-23,-32,-47,-71,-11,-7,-5
16:24:45.902822,-4,-2,-10,-23,-26,-17,-5,-8
16:24:45.909817,-15,-10,41,127,127,47,2,-5
16:24:45.924820,0,-7,-31,-26,127,31,2,2
16:24:45.924820,-23,-50,-18,68,-36,13,-10,-7
16:24:45.946794,6,-7,0,3,37,3,8,4
16:24:45.947795,-8,-16,-23,10,77,3,-4,-6
16:24:45.961785,-9,-12,-6,-37,10,3,-2,-1
16:24:45.969783,12,11,-36,-56,7,-4,4,9
16:24:45.991766,-5,-8,-19,-54,-8,2,1,-1
16:24:45.999762,6,13,36,127,127,74,13,4
16:24:45.999762,2,0,3,-14,-39,2,3,0
16:24:46.006756,3,6,-4,27,115,-8,5,6
16:24:46.021748,9,22,31,92,83,19,6,5
16:24:46.029742,-12,-16,-20,-21,-24,4,1,-4
16:24:46.044734,2,6,22,82,105,6,-5,-1
16:24:46.051734,6,9,-16,-19,43,5,-1,6
16:24:46.059726,0,4,0,-37,-25,0,0,0
16:24:46.074715,-10,-22,-2,94,77,-3,-3,-7
16:24:46.081711,9,23,13,-29,-66,-11,3,3
16:24:46.089707,0,-5,-3,83,55,18,1,1
16:24:46.104698,12,19,15,42,-57,0,6,4
16:24:46.104698,-15,-18,-19,-46,-128,-6,-4,-9
16:24:46.126684,19,39,35,-5,-13,15,4,4
16:24:46.127682,1,3,6,3,-12,-1,1,4
16:24:46.141675,-3,-8,-12,63,17,8,-1,0
16:24:46.149669,11,26,25,-33,-22,-8,4,3
16:24:46.164660,3,6,0,5,-14,-11,-1,0
16:24:46.164660,-5,4,34,110,43,13,2,-1
16:24:46.179651,14,30,23,-5,6,-3,6,7
16:24:46.186649,-11,-34,-31,-44,-6,-2,-3,-1
16:24:46.201638,23,40,26,-92,-52,-39,2,8
16:24:46.209633,-7,-14,-16,1,-26,-20,-3,-1
16:24:46.224626,7,-1,-11,3,96,41,6,2
16:24:46.224626,2,12,7,-35,-128,-12,0,2
16:24:46.239613,-19,-42,-43,23,-92,-30,-3,-4
16:24:46.246611,-29,-30,-35,-57,-128,-24,-13,-13
16:24:46.261601,16,36,36,47,127,42,6,5
16:24:46.276592,-2,-2,-5,-36,-128,-26,2,1
16:24:46.284586,-20,-50,-41,-40,-128,-24,-9,-8
16:24:46.291581,1,0,3,-25,-127,-6,-1,4
16:24:46.306573,2,7,10,8,73,10,0,1
16:24:46.307572,-12,-20,-13,127,104,55,4,3
16:24:46.321565,1,-6,-27,-50,16,-10,-2,1
16:24:46.329560,0,-7,-17,-49,-40,-15,3,6
16:24:46.344549,-21,-37,-17,61,75,26,-3,-8
16:24:46.352544,16,25,9,-11,12,-9,9,12
16:24:46.366545,-2,-1,2,18,46,18,0,1
16:24:46.367536,4,18,14,-92,-128,5,2,1
16:24:46.381528,-4,-10,-9,-10,127,-8,-1,-4
16:24:46.389522,-5,-1,2,-8,-53,2,0,-4
16:24:46.404513,1,5,-2,-60,-33,-4,-1,1
16:24:46.411509,-3,-4,-3,4,6,7,-1,0
16:24:46.434494,-1,-1,-2,-11,-2,-5,-4,-1
16:24:46.434494,-1,0,0,-2,2,-3,-4,-1
16:24:46.441491,1,-4,-2,0,0,2,-7,-3
16:24:46.449484,-2,0,4,0,3,4,-1,-9
16:24:46.464475,15,-2,-2,0,-3,0,11,14
16:24:46.472472,10,5,3,6,4,-11,14,-4
16:24:46.487461,-18,-9,0,-2,-7,-6,95,-20
16:24:46.487461,-39,-5,10,9,16,-1,-48,71
16:24:46.502451,-63,-8,-7,-11,-8,17,-128,-57
16:24:46.509449,83,40,25,19,46,31,127,105
16:24:46.524439,81,-8,-32,-31,-47,-36,78,-128
16:24:46.532435,-47,-28,-9,-8,-36,-19,-128,-17
16:24:46.554419,116,37,27,29,35,70,-128,78
16:24:46.554419,-70,-34,-33,-26,-40,-56,-44,-128
16:24:46.562416,-15,8,8,0,2,-40,-46,-63
16:24:46.569412,-39,-10,-3,-5,-2,-12,55,-24
16:24:46.584401,14,7,-4,-13,-2,6,-10,3
16:24:46.592397,6,-5,-24,-34,-20,-7,-24,2
16:24:46.606389,7,0,12,36,46,8,-10,13
16:24:46.607388,-48,-4,-30,-128,-127,-13,-14,-10
16:24:46.622379,14,-31,-14,-5,4,18,5,16
16:24:46.629375,8,1,6,101,97,-15,-11,-9
16:24:46.644367,-20,24,6,87,-17,-8,-3,-18
16:24:46.659358,68,-51,-58,-32,62,5,-62,-5
16:24:46.667351,127,19,12,-110,127,15,-54,127
16:24:46.667351,22,9,43,-128,-14,-47,28,-15
16:24:46.682346,61,-74,-42,113,125,32,50,-26
16:24:46.689337,-5,31,31,-8,17,-30,33,16
16:24:46.704328,-2,37,23,-87,-41,10,3,46
16:24:46.712322,-35,12,4,60,-21,21,-11,-49
16:24:46.727314,-24,-17,3,26,-32,51,80,-93
16:24:46.727314,-108,44,-1,13,4,-83,-25,40
16:24:46.742304,-19,-3,-8,-85,-128,-108,13,-31
16:24:46.749305,-21,-6,-6,-46,63,-36,-60,6
16:24:46.764292,10,4,6,34,80,-14,19,85
16:24:46.779283,-1,-2,-18,-39,-128,-28,15,-11
16:24:46.786280,-28,-20,3,33,126,-8,-9,-40
16:24:46.787277,9,11,16,8,91,55,66,6
16:24:46.802269,15,-20,2,27,49,59,55,11
16:24:46.809271,-15,-1,2,-39,-31,2,7,-23
16:24:46.824254,-13,-4,-4,18,31,17,7,-10
16:24:46.832249,-6,-3,-17,2,-27,-40,-4,0
16:24:46.846242,-2,-3,7,-18,15,-3,-4,-6
16:24:46.847240,-5,-9,-60,-128,-53,-36,-5,1
16:24:46.862230,9,6,20,46,-56,-17,-11,-2
16:24:46.877221,1,1,10,33,41,20,4,-7
16:24:46.884216,5,-6,-6,-8,4,4,-11,-20
16:24:46.892212,1,4,29,78,84,4,-3,-2
16:24:46.906230,1,3,25,-1,-2,9,-14,-5
16:24:46.907204,-1,4,-10,1,-57,-10,4,4
16:24:46.922193,-6,3,4,14,23,-3,-4,-9
16:24:46.929198,15,3,-7,-35,23,35,22,21
16:24:46.944186,-7,-6,-32,-30,-98,-8,-41,-22
16:24:46.959170,-37,6,14,52,10,-4,-4,-15
16:24:46.967166,15,4,1,29,-29,1,19,33
16:24:46.967166,5,3,2,-1,25,43,16,8
16:24:46.989152,-1,5,4,-63,-64,-15,-14,-3
16:24:46.990151,-12,-9,-12,-48,-17,5,3,4
16:24:47.004146,-9,-8,-2,13,-3,15,6,-32
16:24:47.012138,2,2,3,1,-2,12,2,16
16:24:47.027129,-8,-1,0,3,-88,-35,2,-15
16:24:47.027129,-14,-3,-1,4,38,15,-8,-14
16:24:47.049116,-2,-4,-11,-79,-50,-7,-4,-5
16:24:47.050117,-1,-4,0,13,36,3,5,-1
16:24:47.064107,-4,3,1,78,86,18,2,-5
16:24:47.072102,0,-5,-1,22,54,-10,-3,2
16:24:47.087107,3,-1,-1,6,11,-9,-8,24
16:24:47.087107,2,1,-3,-3,-10,-2,11,6
16:24:47.102085,-1,0,-4,-5,-14,-5,-4,-5
16:24:47.109079,0,-1,4,-12,-5,3,2,-9
16:24:47.124071,-10,-7,-7,29,20,-7,-19,-9
16:24:47.132064,0,4,-4,-112,-128,-11,1,3
16:24:47.147055,-4,0,0,28,30,-8,-8,-5
16:24:47.147055,4,2,2,3,12,10,-3,9
16:24:47.162048,-9,-2,-3,1,-8,3,25,-13
16:24:47.170042,5,8,3,3,1,9,11,22
16:24:47.185033,7,4,2,3,6,12,8,0
16:24:47.192029,8,2,-2,-1,4,-11,-15,24
16:24:47.207020,0,-2,-1,1,20,12,8,1
16:24:47.214014,0,5,5,12,14,6,3,-2
16:24:47.229007,-5,-4,2,18,-2,-1,-18,-9
16:24:47.230006,1,1,-1,2,-12,-12,-5,1
16:24:47.244996,-3,-4,-4,22,35,8,3,0
16:24:47.251990,3,1,3,4,8,8,3,-1
16:24:47.266982,-3,0,-3,0,-1,5,3,4
16:24:47.273979,6,2,3,5,9,4,19,3
16:24:47.288970,0,3,6,4,5,7,-6,3
16:24:47.289967,-1,2,1,3,7,2,2,-4
16:24:47.304958,2,-1,-2,-10,-1,6,11,5
16:24:47.311954,0,2,4,22,49,6,5,7
16:24:47.326945,-6,-4,-3,2,32,-1,8,-8
16:24:47.334939,-3,1,0,-4,8,-2,-1,7
16:24:47.349930,-4,-2,-3,-4,-6,5,-2,-5
16:24:47.349930,-3,-4,1,1,3,-1,-3,-8
16:24:47.364921,10,4,6,5,2,8,8,10
16:24:47.371917,-6,-4,-2,-3,-4,3,-6,-9
16:24:47.386907,2,1,0,3,-25,-15,-21,-2
16:24:47.401900,-6,-4,-4,-8,2,25,19,-5
16:24:47.408894,-2,-3,-3,0,-1,-5,-3,-11
16:24:47.409893,-1,-3,-2,-1,1,-2,0,-3
16:24:47.424885,-1,0,-3,-46,-15,-2,-11,-3
16:24:47.431881,-5,-1,-2,10,-55,-15,-21,-16
16:24:47.446873,-2,-1,-1,7,6,-14,-11,21
16:24:47.461863,-1,1,1,-4,-6,-5,-3,-4
16:24:47.469857,-3,0,2,-3,-3,-3,-7,-3
16:24:47.469857,2,1,2,2,3,4,5,-1
16:24:47.484869,-1,-1,-4,-1,-4,-1,-14,0
16:24:47.491843,-4,-2,1,-3,2,4,2,-7
16:24:47.506834,11,7,8,16,18,4,13,17
16:24:47.514829,0,0,1,-15,4,1,-12,-6
16:24:47.529819,-1,-2,-3,0,-10,-6,1,2
16:24:47.529819,0,0,0,5,-5,1,-7,3
16:24:47.544810,-2,3,-3,-1,1,3,5,1
16:24:47.551806,5,2,4,4,3,2,0,0
16:24:47.573793,0,0,-2,-3,-3,-1,-3,-2
16:24:47.574792,-2,0,-3,-1,-3,-6,-2,-5
16:24:47.589783,-1,0,-3,-3,-5,4,19,1
16:24:47.589783,-2,0,-3,-5,4,-5,-19,-7
16:24:47.604773,0,3,2,5,8,4,12,5
16:24:47.611770,3,2,0,-5,14,3,-3,1
16:24:47.626760,0,-1,1,-2,-5,-3,-3,0
16:24:47.634755,2,0,0,21,9,2,-8,-1
16:24:47.649747,2,2,1,4,-6,-4,1,0
16:24:47.649747,0,3,0,-15,-9,2,-2,-2
16:24:47.664737,-1,0,-1,3,-3,0,7,11
16:24:47.671733,-1,-1,-3,-4,-3,0,0,0
16:24:47.686724,0,-1,-1,1,7,4,-4,-2
16:24:47.694719,-1,2,-1,2,-4,2,-1,0
16:24:47.716706,5,-1,4,7,-9,4,-4,6
16:24:47.717704,-3,-5,-5,0,10,5,9,-6
16:24:47.724700,-1,-2,-3,-9,-7,1,2,-5
16:24:47.731704,-2,2,2,2,-7,-1,-1,-1
16:24:47.746689,3,1,2,3,4,3,5,2
16:24:47.754682,1,4,-1,0,-3,2,5,6
16:24:47.769673,3,-1,-1,1,5,9,12,8
16:24:47.776667,-3,-3,0,1,-1,1,-4,-7
16:24:47.784664,3,1,2,4,4,-1,-3,3
16:24:47.791664,0,0,-6,-2,-3,-11,-2,6
16:24:47.806651,-1,-2,-1,0,3,-4,-7,1
16:24:47.814644,1,-5,3,0,4,1,-2,-3
16:24:47.829635,2,-1,0,-2,-5,0,0,1
16:24:47.829635,2,0,2,-5,4,0,-9,-4
16:24:47.844625,0,-2,-1,3,-7,-5,-1,-2
16:24:47.852622,-3,-1,-3,-2,2,1,-7,-7
16:24:47.866616,2,-1,3,6,1,0,3,2
16:24:47.882604,0,-3,4,1,2,0,2,3
16:24:47.889598,0,-3,2,-4,-4,-6,12,-5
16:24:47.889598,-2,2,0,0,2,14,4,1
16:24:47.904589,-4,-1,-2,-2,-10,0,-8,-3
16:24:47.911584,-2,-3,-2,0,-1,0,-1,-1
16:24:47.926577,-4,-4,-6,-3,-8,-11,-2,-5
16:24:47.934573,1,3,2,-2,1,-5,1,1
16:24:47.949561,-2,-4,1,-3,-1,-3,-2,-1
16:24:47.949561,4,4,4,2,-13,-2,9,10
16:24:47.964552,1,0,-1,2,7,0,-1,-4
16:24:47.971549,1,2,0,0,-1,2,1,6
16:24:47.986540,-5,-1,-3,-3,-1,8,1,-7
16:24:47.994534,-1,-2,-1,-4,-4,-5,-11,-3
16:24:48.009525,-1,-2,-2,-3,-4,2,4,3
16:24:48.009525,-4,1,-1,1,-1,1,-1,-3
16:24:48.024515,-3,-4,-2,0,-9,-4,-2,-5
16:24:48.032510,0,0,3,2,6,6,0,0
16:24:48.047501,-3,0,-2,-9,2,4,4,9
16:24:48.054497,0,1,3,0,2,4,2,5
16:24:48.069489,-4,-4,-3,-6,-1,2,-16,-7
16:24:48.069489,-4,-3,-1,-3,-7,-5,4,-2
16:24:48.084480,-4,-6,-7,-6,-5,-4,-10,-8
16:24:48.099470,-2,-4,0,-1,-2,-3,0,-2
16:24:48.106466,-1,1,3,1,1,-3,9,2
16:24:48.114462,-1,1,1,1,0,-4,-4,-1
16:24:48.129451,-1,-2,-3,-1,3,1,1,1
16:24:48.137448,0,1,-2,2,0,2,-7,-6
16:24:48.144442,2,-1,-1,0,-4,-1,-4,5
16:24:48.152436,0,0,-1,-1,2,3,4,2
16:24:48.167427,0,-1,-3,-1,-4,-6,-10,-6
16:24:48.174423,1,3,0,-2,0,5,7,8
16:24:48.189414,-1,-3,-3,-3,-3,-5,-4,-6
16:24:48.197438,-2,0,-1,-3,-2,-2,-4,1
16:24:48.211399,-3,0,1,-2,-2,-2,9,-1
16:24:48.212400,-5,-2,-1,-1,-4,-5,-2,-1
16:24:48.226390,1,0,-1,-4,1,-4,-1,-3
16:24:48.234387,0,1,-2,-3,0,6,6,-3
16:24:48.249377,-1,-3,-2,-1,-3,-4,0,-3
16:24:48.257372,-2,-5,0,-1,4,3,0,-6
16:24:48.272364,2,-2,1,-2,-5,-1,-3,-1
16:24:48.272364,1,-3,1,-5,-3,-1,-4,-1
16:24:48.287353,1,-3,1,5,4,7,3,0
16:24:48.294350,0,0,-3,-3,-8,-4,-1,-5
16:24:48.309341,-2,-3,-1,-1,-1,2,-4,-6
16:24:48.317339,0,-2,2,2,2,-5,4,-5
16:24:48.332326,-1,0,0,0,-5,-6,-26,-3
16:24:48.332326,1,-1,-3,1,3,-3,3,-3
16:24:48.347317,2,-3,-4,-1,-4,0,2,0
16:24:48.354312,1,0,0,-2,0,-2,-1,-4
16:24:48.377300,1,1,1,0,1,0,0,2
16:24:48.377300,1,1,-3,-4,4,4,-1,-4
16:24:48.391291,-1,-1,1,0,0,0,1,-1
16:24:48.392290,2,1,0,0,3,0,-1,-2
16:24:48.407279,-2,-3,0,-1,-2,-3,-5,-6
16:24:48.414276,-2,0,-4,-2,-4,-4,14,8
16:24:48.429266,-1,-1,-2,-1,-4,-4,-1,-5
16:24:48.437263,-6,-1,1,-1,-2,0,0,-2
16:24:48.452258,1,-1,-1,2,3,-2,3,2
16:24:48.452258,-1,-2,-2,-6,-6,-3,-2,-4
16:24:48.467245,-4,-2,-4,-3,-3,-2,-6,-4
16:24:48.474243,2,0,1,2,2,-1,2,1
16:24:48.489231,-2,0,0,1,-4,1,4,-3
16:24:48.497225,-2,-2,0,-4,-1,1,-2,-6
16:24:48.512218,0,-1,-2,-1,-1,-2,1,0
16:24:48.513216,-4,-2,-3,-3,-2,-2,-2,-3
16:24:48.527206,-2,0,-4,-2,-10,-5,-12,-4
16:24:48.535202,-2,-3,0,0,2,5,8,7
16:24:48.549201,-3,-2,-2,-1,-2,-2,-3,-4
16:24:48.557187,-6,-3,-2,-2,-2,-6,-2,-7
16:24:48.572178,-3,1,0,-1,-1,-4,15,-7
16:24:48.572178,3,-1,0,-3,0,2,-1,0
16:24:48.594165,-4,-1,-2,-2,-1,-5,-1,-4
16:24:48.595166,1,-1,-1,3,1,-3,3,-3
16:24:48.609155,-3,-1,-1,-4,-3,2,-3,-3
16:24:48.617152,-2,-3,0,3,3,-5,-3,-2
16:24:48.632141,-2,-1,-3,-1,-1,0,6,-1
16:24:48.640139,3,2,-1,0,-2,-1,2,11
16:24:48.647132,2,3,-2,1,3,4,8,-2
16:24:48.670119,0,1,-1,2,5,2,5,-2
16:24:48.670119,-3,1,2,1,0,-9,-16,-3
16:24:48.684111,-3,0,-2,-3,0,-1,1,-5
16:24:48.692106,-2,-5,-2,-1,1,-2,-3,-1
16:24:48.692106,-1,-4,-4,-4,-10,-10,-7,-6
16:24:48.707095,1,-2,-2,2,2,1,-1,1
16:24:48.714092,-3,-2,-4,-1,3,-5,1,0
16:24:48.729083,0,0,1,3,3,1,4,0
16:24:48.737080,-2,-3,-5,-5,-4,-3,-6,-4
16:24:48.752069,-2,-1,0,-1,0,1,-4,-7
16:24:48.752069,-1,1,1,1,2,6,7,2
16:24:48.774053,-2,0,-1,-1,-2,-1,-2,-1
16:24:48.775053,5,-1,0,0,3,9,9,23
16:24:48.790045,-2,0,-1,-2,2,-3,-1,-4
16:24:48.797040,-1,-1,2,1,2,-4,0,-5
16:24:48.812030,-1,0,-3,1,-3,0,-2,0
16:24:48.820025,1,-3,2,2,-2,2,19,6
16:24:48.827022,1,-3,0,-3,-1,1,-2,-2
16:24:48.835016,-1,-2,-3,-1,-1,0,-6,-3
16:24:48.850007,-1,-5,-2,-1,-3,-4,1,-1
16:24:48.857005,0,-2,0,-3,-3,1,1,-3
16:24:48.878991,0,-1,0,-1,2,5,-1,-1
16:24:48.879995,-3,-1,0,-4,-5,-6,-1,-2
16:24:48.886985,-1,-2,-2,-5,3,-1,2,1
16:24:48.894980,-2,0,2,0,1,-1,-3,0
16:24:48.908973,-2,-6,-4,-3,-1,-1,-9,-4
16:24:48.916965,4,1,1,-1,-2,-5,-5,9
16:24:48.931956,-3,-3,-4,3,0,1,-4,-4
16:24:48.932957,-2,-2,-1,-1,1,-1,3,-1
16:24:48.946947,0,-1,-1,1,-1,2,10,-2
16:24:48.953970,-5,-1,2,1,-2,-5,-1,-3
16:24:48.969933,1,0,1,0,3,-1,-1,2
16:24:48.991920,-1,-3,-2,-2,-1,-2,2,0
16:24:48.991920,-4,-4,-2,0,-1,-4,1,-3
16:24:48.992926,-3,-1,-5,-4,-2,-3,9,-2
16:24:49.006910,2,4,1,3,-1,-1,7,3
16:24:49.013908,2,2,3,-3,-4,-9,1,3
16:24:49.029896,2,-1,3,1,0,0,-1,-2
16:24:49.036892,-4,-3,-5,-3,0,0,5,2
16:24:49.051882,-1,-1,1,3,-2,-2,-1,-1
16:24:49.052884,0,-3,-1,-5,-1,-2,-1,0
16:24:49.066873,1,-3,1,-3,0,-3,8,1
16:24:49.074877,1,3,-2,2,1,-1,-3,0
16:24:49.089860,-1,0,-2,0,-3,-1,1,1
16:24:49.096862,1,-1,-1,-1,2,-6,-11,-1
16:24:49.111846,-2,-3,0,-1,-2,0,1,0
16:24:49.126836,-2,-3,-1,-1,-2,-1,3,0
16:24:49.134831,0,0,0,-1,-2,0,4,4
16:24:49.134831,-1,1,-1,-3,-2,2,-2,-2
16:24:49.149823,-2,3,-1,0,2,0,-8,-6
16:24:49.156824,-5,-2,0,-5,-2,-4,-3,-2
16:24:49.172809,-2,2,-2,0,-2,-2,-1,-2
16:24:49.179807,0,-2,0,0,-2,-1,-5,-3
16:24:49.194798,-2,-1,1,-2,0,-1,-2,1
16:24:49.194798,-4,-1,-5,-2,-1,-13,-10,-3
16:24:49.209789,0,2,-2,1,0,-2,1,-2
16:24:49.217781,-3,-3,1,-3,-2,-4,1,0
16:24:49.232772,-1,0,2,-1,0,3,-1,0
16:24:49.239770,-1,0,0,0,0,-2,-3,-4
16:24:49.254761,-1,-1,-1,0,-1,-10,-1,3
16:24:49.254761,0,-1,0,-2,0,2,-2,2
16:24:49.269752,-2,1,-1,-3,-5,-19,-29,-8
16:24:49.276747,1,-1,0,-4,-3,-1,4,0
16:24:49.299734,-1,-1,0,3,0,-5,0,-3
16:24:49.300733,-1,2,-1,-1,-2,0,3,1
16:24:49.322717,-1,0,-1,0,-3,-4,1,-4
16:24:49.322717,-3,0,1,-1,-4,-6,3,0
16:24:49.329713,0,-2,0,-2,0,-2,5,3
16:24:49.337710,-3,-1,1,-3,-9,-11,10,1
16:24:49.352700,-1,0,1,-2,0,-2,-3,0
16:24:49.359694,-3,-2,-4,-5,-6,-4,-1,-4
16:24:49.374684,0,0,1,0,0,1,9,6
16:24:49.375689,1,-3,-3,-2,-3,-2,-5,-3
16:24:49.397670,-1,1,0,-1,-3,-2,-10,-2
16:24:49.397670,-5,-4,-4,-2,0,-4,-2,-2
16:24:49.412664,3,1,1,2,4,5,1,0
16:24:49.419657,2,-5,-2,-5,-5,-4,-3,-4
16:24:49.434648,2,-1,-2,-2,0,10,6,1
16:24:49.435650,-2,-4,0,-6,-4,-3,18,10
16:24:49.449641,-3,1,-4,0,1,1,-1,-2
16:24:49.457637,-3,-3,-1,-1,-3,1,2,2
16:24:49.472625,3,-1,-2,-1,-5,-2,-8,-2
16:24:49.479623,-3,-1,1,1,3,3,4,1
16:24:49.494610,1,-3,-2,-1,-1,-2,0,2
16:24:49.495612,-2,-1,-4,0,0,3,-2,-4
16:24:49.509604,0,0,1,-2,-2,3,-3,-4
16:24:49.517599,-2,-1,-2,-1,-1,-6,-14,-6
16:24:49.532587,-2,-3,1,0,-2,-1,-1,-5
16:24:49.539586,-1,-2,-5,-3,-2,-2,-1,-4
16:24:49.554577,2,-2,2,-1,2,-5,3,-2
16:24:49.555576,1,-4,-3,-1,1,-9,-15,-3
16:24:49.569567,-2,0,-2,0,-2,0,4,0
16:24:49.577560,-4,-3,-1,-1,-2,1,4,-2
16:24:49.592551,-1,-1,-3,-2,-2,-1,1,-1
16:24:49.607541,2,0,2,2,4,-1,2,1
16:24:49.614539,-3,-1,-4,-4,-3,1,-2,-4
16:24:49.615539,-3,1,-1,1,0,-3,-7,1
16:24:49.629530,0,1,0,2,2,0,-1,0
16:24:49.637526,-3,-1,-2,-1,-2,-3,0,0
16:24:49.652516,-1,0,-2,2,1,-1,-1,-6
16:24:49.667507,1,-1,1,1,-5,-2,-2,0
16:24:49.674503,3,1,6,2,7,6,0,3
16:24:49.675502,0,2,0,-1,0,4,2,-2
16:24:49.689493,0,-2,0,-1,-3,-1,-2,-3
16:24:49.697488,2,-3,0,-1,-4,2,4,3
16:24:49.712480,0,-1,-4,2,-1,-4,0,-1
16:24:49.719474,-2,-2,-1,-2,3,1,-7,1
16:24:49.734465,-1,0,-2,-3,-4,-2,0,-2
16:24:49.735463,1,0,0,0,3,4,1,1
16:24:49.749454,-3,0,-1,4,-2,4,-1,-4
16:24:49.757452,-1,-4,0,1,-1,-5,-2,0
16:24:49.772442,-1,0,-1,-3,-3,-2,-2,0
16:24:49.779437,1,-3,-2,-1,-2,-1,0,-3
16:24:49.794429,0,0,0,1,-2,-3,-3,-1
16:24:49.795427,-1,-3,-5,-3,-1,-1,-13,-2
16:24:49.809417,-4,0,-3,-1,0,1,5,5
16:24:49.824408,5,2,2,2,10,7,4,3
16:24:49.832402,-2,0,-2,-1,-3,-5,-6,-4
16:24:49.839399,-2,-2,2,1,2,-3,-10,-1
16:24:49.854392,-4,0,1,-1,0,3,0,0
16:24:49.855388,-2,-1,-4,-5,4,11,2,1
16:24:49.869380,-5,-3,-2,0,-4,-6,-2,-1
16:24:49.877378,8,7,8,11,17,17,11,15
16:24:49.892366,-4,-3,-2,-2,-3,1,-5,-6
16:24:49.899362,-2,-1,-2,-4,-2,3,-2,-4
16:24:49.922350,2,2,-2,-2,0,-5,-9,6
16:24:49.923350,-5,-4,-1,-4,0,-1,2,0
16:24:49.929342,3,-1,-1,-2,-2,-1,4,2
16:24:49.937341,1,-3,-2,-1,-2,-1,0,-1
16:24:49.952332,-4,-1,0,-3,-7,-6,-1,-3
16:24:49.959325,-4,-2,-2,-3,3,4,-1,-4
16:24:49.974317,-2,-2,0,-2,-4,-4,1,-4
16:24:49.975317,0,1,2,-3,0,-5,-9,2
16:24:49.989307,-3,-4,-3,-4,-3,2,1,-3
16:24:49.997304,-3,0,-1,2,2,-2,-3,3
16:24:50.012295,2,0,-3,-2,-1,-3,5,5
16:24:50.020286,-4,0,-1,1,0,2,1,-3
16:24:50.042277,-3,-1,-5,-5,-5,1,2,-5
16:24:50.043274,1,-1,0,-1,-1,-1,-4,0
16:24:50.050271,-2,3,-1,3,0,-1,-2,2
16:24:50.057267,0,-2,-1,1,1,-4,0,0
16:24:50.072258,-2,-1,-1,1,-2,3,2,-4
16:24:50.079251,1,0,0,1,-4,1,0,1
16:24:50.095243,2,2,2,4,1,-2,0,2
16:24:50.102240,-3,-1,-3,-4,-1,0,8,-2
16:24:50.117230,3,0,-4,-1,-1,-5,0,2
16:24:50.118226,2,-3,0,-3,-3,-1,-1,0
16:24:50.132221,-7,-4,-3,-3,-5,-4,-6,-11
16:24:50.139216,0,2,2,-3,-3,5,5,6
16:24:50.155206,3,0,-2,-3,-7,2,1,1
16:24:50.162203,-1,0,-3,-3,1,-2,3,-5
16:24:50.177194,5,0,0,0,0,7,3,4
16:24:50.178192,2,1,2,1,1,4,1,0
16:24:50.192184,1,-2,-1,-1,-1,-1,-1,-2
16:24:50.200179,-4,-5,-1,-3,-3,-2,-7,-4
16:24:50.215167,0,1,-1,-2,-2,-3,2,0
16:24:50.222163,0,1,-1,-1,-3,-6,0,-1
16:24:50.237157,-1,-1,-2,-2,-4,-7,-5,-4
16:24:50.238165,0,1,0,-1,0,-1,6,7
16:24:50.252148,-2,-4,-2,-5,-6,-5,-10,-6
16:24:50.260141,2,-2,-2,-1,-2,1,10,12
16:24:50.275130,-1,-1,-1,1,0,-2,2,-4
16:24:50.282126,-4,-2,-1,-3,-3,1,-3,-4
16:24:50.297119,-2,-1,-3,1,-2,-5,1,-1
16:24:50.305114,1,2,0,1,-3,-4,-13,1
16:24:50.320105,0,1,0,1,-2,1,0,-2
16:24:50.320105,0,-1,-1,-1,0,3,-2,-2
16:24:50.335096,-1,-3,-4,-3,-4,2,0,0
16:24:50.350087,-1,-3,-1,3,4,3,2,-1
16:24:50.357082,-2,-1,-3,-5,-1,-6,-11,0
16:24:50.358081,-3,0,-2,-1,-2,-2,1,1
16:24:50.372073,-1,2,-5,-2,-2,-4,8,7
16:24:50.380069,-1,-2,-4,-3,-3,1,-2,-7
16:24:50.395059,1,1,-1,3,0,2,-9,1
16:24:50.402055,0,0,-1,-2,0,-2,4,4
16:24:50.417046,-2,-2,-1,-2,0,6,-8,1
16:24:50.418044,0,-1,-2,-3,0,2,10,4
16:24:50.432036,-3,-3,-6,-3,0,-1,0,-2
16:24:50.440031,-2,-1,3,1,-2,-1,1,1
16:24:50.455022,-1,-1,-3,0,2,2,0,0
16:24:50.462015,2,2,0,0,2,-2,-1,3
16:24:50.477006,0,0,-2,-1,-3,0,-2,-4
16:24:50.485004,-4,-3,-4,-4,-4,-3,6,3
16:24:50.491996,-1,3,0,0,2,4,-4,1
16:24:50.499995,-2,-1,-2,0,1,-1,-1,1
16:24:50.514983,-1,-2,-3,-2,-2,2,16,-3
16:24:50.521979,-1,0,0,1,2,1,1,0
16:24:50.536972,1,-2,-2,-1,0,0,1,-2
16:24:50.537968,-3,1,-4,-3,-5,-3,-5,1
16:24:50.552959,-2,1,2,0,-1,-1,1,-1
16:24:50.559958,-3,0,-2,-4,0,-1,-3,-3
16:24:50.574949,1,-2,-4,-1,-3,-2,3,2
16:24:50.582943,0,0,-4,-3,0,0,-1,-1
16:24:50.604930,0,0,2,1,1,-1,5,-4
16:24:50.604930,-1,0,1,1,0,4,-14,0
16:24:50.611923,-3,-3,-4,-3,-2,-5,-2,-5
16:24:50.626914,-1,2,-1,-3,-1,1,0,-1
16:24:50.634911,-3,-3,-3,-3,0,-2,-3,-5
16:24:50.656898,0,0,-1,0,1,0,-2,3
16:24:50.657894,0,-1,-2,-2,0,-3,-3,-4
16:24:50.658894,-1,-2,-1,-1,0,2,-10,-2
16:24:50.671885,-1,0,1,1,3,1,2,-3
16:24:50.679884,-3,-3,-1,2,-1,-1,-2,-5
16:24:50.694875,0,-1,-1,1,2,3,9,-1
16:24:50.702869,-3,0,-1,-2,0,-1,-2,-4
16:24:50.716860,-3,3,0,-1,-3,-2,0,0
16:24:50.717860,-3,-5,-1,1,-4,-1,-2,-1
16:24:50.732850,-6,-5,-3,-2,0,-2,-9,-6
16:24:50.739847,-2,0,-1,-4,1,0,-1,2
16:24:50.754837,-2,-1,-1,0,-4,-2,-1,1
16:24:50.761833,-1,-3,-1,0,-1,2,2,-2
16:24:50.776824,2,-4,-2,-1,0,1,1,-3
16:24:50.777823,-2,1,2,2,4,3,1,1
16:24:50.792812,2,-2,2,3,0,-8,16,5
16:24:50.799807,5,4,1,4,5,9,27,20
16:24:50.814798,-3,-4,0,-2,-3,-5,-4,-6
16:24:50.821794,-4,-3,0,-4,0,-6,-2,-5
16:24:50.836783,-1,1,-2,-2,-1,2,5,4
16:24:50.837785,0,-5,0,1,0,3,6,2
16:24:50.851774,-2,-1,0,0,-1,-3,-2,-4
16:24:50.859769,1,-3,0,0,-1,-6,5,5
16:24:50.874761,0,2,-1,0,-6,-5,-4,-2
16:24:50.881756,-2,-3,3,2,2,-1,-1,-1
16:24:50.896746,-3,-4,-4,-2,-2,-1,-6,-5
16:24:50.897746,0,0,-1,-1,0,-5,7,8
16:24:50.911737,-3,-3,-2,-2,0,-2,-4,-6
16:24:50.919733,1,0,2,2,-1,2,1,2
16:24:50.934725,-2,-2,-2,-1,0,-4,8,-3
16:24:50.941719,-3,0,-3,-1,-1,1,-7,0
16:24:50.956710,1,1,2,5,2,3,-1,0
16:24:50.957710,-2,1,0,-2,-3,0,-2,-4
16:24:50.971702,1,-1,-2,-2,-1,0,1,2
16:24:50.979698,0,-3,1,-1,0,-6,7,3
16:24:51.017673,1,1,0,-2,3,6,-3,0
16:24:51.018672,1,-3,-1,-2,-5,-2,26,17
16:24:51.018672,-1,-2,-1,1,3,1,-3,-3
16:24:51.028666,-3,-2,-3,-6,-9,-7,-1,-5
16:24:51.042659,-3,0,-2,0,-2,-1,-1,-1
16:24:51.042659,-1,3,0,0,2,-4,1,-3
16:24:51.054651,1,-2,-2,-4,-2,-1,0,-4
16:24:51.061645,-3,-1,-1,0,-1,4,-5,-4
16:24:51.076673,0,0,2,0,-2,6,8,2
16:24:51.084633,-4,-3,-1,-4,-1,-4,-3,1
16:24:51.099623,-1,-1,-1,-2,-4,-2,9,-4
16:24:51.099623,1,-3,-2,-1,-1,0,1,-4
16:24:51.114612,0,-3,0,-1,-2,0,-4,-2
16:24:51.121611,0,0,2,0,1,0,3,7
16:24:51.136602,-3,-3,-3,-3,-3,0,-1,0
16:24:51.151589,-4,-5,0,-3,1,-1,0,2
16:24:51.159584,-1,-1,1,0,0,1,3,1
16:24:51.159584,1,1,2,0,-2,2,1,3
16:24:51.174576,-1,1,-1,-3,-2,-2,16,6
16:24:51.182571,-3,0,-3,-2,-2,-9,-20,-3
16:24:51.197564,4,1,0,4,4,3,7,-1
16:24:51.204562,-3,1,-2,-1,4,0,3,2
16:24:51.219549,-3,-1,0,-2,-3,1,0,-1
16:24:51.219549,-2,-3,-3,1,-3,0,0,3
16:24:51.234541,-1,0,1,0,-2,-1,-3,-2
16:24:51.242541,0,0,0,-1,3,3,3,5
16:24:51.257533,-1,-2,-1,-2,-1,-2,-3,-3
16:24:51.264522,-3,-5,-1,0,-4,0,8,-3
16:24:51.279512,5,2,2,1,5,9,10,5
16:24:51.279512,-2,-3,-3,-4,-3,-3,0,-1
16:24:51.294503,-4,-1,-1,0,-1,0,1,-1
16:24:51.302509,-1,0,-4,-2,-7,4,3,3
16:24:51.317488,3,4,1,0,2,6,6,4
16:24:51.324485,-1,-2,1,-1,-3,-1,-1,-3
16:24:51.339474,-3,0,-3,-2,-3,-3,-5,-4
16:24:51.339474,-3,-3,-3,-4,-1,2,-5,0
16:24:51.354466,-5,-3,-3,-1,-2,-6,6,-2
16:24:51.369457,-4,-3,-6,-3,-5,-1,-4,-3
16:24:51.377451,-1,0,1,-3,-3,4,1,1
16:24:51.384448,2,1,-1,-1,0,-4,12,13
16:24:51.406434,0,2,-1,1,-2,-4,-2,-3
16:24:51.407432,-1,-5,-1,-3,-3,-4,-2,5
16:24:51.414428,-1,-1,0,3,-3,-2,0,0
16:24:51.422424,0,-2,-2,-3,0,4,14,1
16:24:51.437415,0,3,-2,1,0,3,0,0
16:24:51.444410,3,2,4,6,1,3,11,6
16:24:51.459402,0,0,-1,-1,-2,-2,9,3
16:24:51.460401,-1,-3,1,-1,-2,-5,-4,-4
16:24:51.482388,-1,0,-1,-2,-1,0,-3,-6
16:24:51.482388,0,0,1,1,1,-4,0,6
16:24:51.497376,0,-1,-2,0,-1,-1,0,-3
16:24:51.504373,-1,2,1,0,3,5,-3,-1
16:24:51.519364,0,-1,1,2,3,1,0,-2
16:24:51.519364,2,2,3,1,-2,1,2,1
16:24:51.534354,0,-3,-1,0,-1,5,9,9
16:24:51.542350,0,2,0,0,1,-5,0,1
16:24:51.557346,-3,-1,-1,-3,-3,-6,-6,0
16:24:51.564335,-1,-4,0,0,-2,0,0,-2
16:24:51.579328,-2,0,-1,-3,-6,-1,-4,3
16:24:51.580326,-2,0,-2,0,-1,-3,1,1
16:24:51.594317,0,-2,1,3,1,2,-3,0
16:24:51.602314,-2,-1,-2,-5,-1,-1,6,1
16:24:51.617304,-1,-3,-3,-5,-1,-2,-5,-4
16:24:51.624366,-5,-6,-2,-1,-2,-4,-12,-7
16:24:51.639291,6,1,-1,0,0,3,7,8
16:24:51.640299,0,-2,-1,-3,-1,-6,-1,-7
16:24:51.654281,0,2,-1,3,8,6,-2,2
16:24:51.662277,-1,-1,-2,-1,-2,-3,-1,2
16:24:51.684263,2,0,0,1,1,0,-3,-1
16:24:51.685262,-3,0,-3,-3,-2,-1,-7,2
16:24:51.699253,1,-1,1,3,-2,3,3,-1
16:24:51.700253,5,2,4,2,6,6,18,20
16:24:51.714243,1,-2,0,1,-4,1,0,-3
16:24:51.722240,-5,-2,-2,-3,-1,0,-1,-3
16:24:51.737230,-3,-2,-5,-2,-3,-1,-1,-1
16:24:51.744225,-2,-3,-1,-3,-1,-3,-10,0
16:24:51.767215,-3,-2,0,-1,1,-3,12,-2
16:24:51.768213,-1,-3,1,0,1,7,0,3
16:24:51.774207,3,0,1,4,5,-7,-3,-4
16:24:51.782205,-3,0,1,-4,-3,-1,-1,0
16:24:51.797196,-3,-1,1,-3,-1,-3,-4,0
16:24:51.805189,-2,-4,-2,-1,1,-4,-2,-4
16:24:51.820179,-3,2,-4,-2,-2,-5,-2,2
16:24:51.820179,-1,-2,-3,-1,-2,1,1,0
16:24:51.835173,3,2,0,1,2,-1,-7,-5
16:24:51.842166,0,-1,0,1,-3,1,-13,1
16:24:51.857159,-2,-3,-3,-1,0,6,2,3
16:24:51.865151,-6,-1,-1,-1,0,-3,-5,-3
16:24:51.880143,1,1,2,3,5,4,-1,1
16:24:51.880143,2,0,-2,-2,-2,2,13,5
16:24:51.902128,-2,1,-2,-1,-3,0,-10,-6
16:24:51.903127,-1,1,-1,-2,1,2,1,3
16:24:51.917119,0,-2,0,0,-1,-2,-6,-5
16:24:51.924114,2,1,-1,0,2,4,2,4
16:24:51.939105,0,0,3,0,-1,7,-4,2
16:24:51.947101,1,-2,0,-2,-4,-4,12,0
16:24:51.955096,-2,-2,-1,-4,-2,0,-2,-1
16:24:51.962091,0,1,-1,-4,-4,-4,8,16
16:24:51.985078,-1,1,-2,-1,-1,-1,-5,-2
16:24:51.985078,0,-2,-3,1,0,2,1,1
16:24:52.007065,0,-2,-3,1,-4,-4,0,-3
16:24:52.007065,-4,-2,-3,1,0,-5,-2,-2
16:24:52.022055,2,3,1,-2,-3,1,-1,1
16:24:52.023054,1,-1,0,0,-2,-1,2,5
16:24:52.037046,-4,-2,-1,0,-2,-2,-2,-4
16:24:52.044041,-1,-1,1,1,-3,2,-10,-2
16:24:52.059032,-3,-3,-2,0,0,1,3,-1
16:24:52.067027,1,2,4,1,4,0,-3,-4
16:24:52.082019,1,1,-2,-3,-3,-2,7,5
16:24:52.083018,-1,-1,0,-1,1,-2,-1,0
16:24:52.097009,1,4,2,2,-1,-4,0,3
16:24:52.105014,-4,-1,-2,0,2,-1,-4,-3
16:24:52.119994,-1,0,1,-2,-1,-5,-7,2
16:24:52.126990,-2,-1,-1,-2,-3,-1,-2,-7
16:24:52.141982,0,0,-1,0,1,-2,1,2
16:24:52.142981,-1,-1,-1,2,3,1,1,-1
16:24:52.156971,-3,-2,1,-1,0,1,-6,-5
16:24:52.163970,-3,-3,-3,-3,-2,-3,4,5
16:24:52.178962,-1,-3,-3,-3,-1,-2,-5,-4
16:24:52.186952,0,0,0,0,1,-5,1,0
16:24:52.201945,-6,-2,0,-1,-3,-5,-4,-3
16:24:52.202944,2,-1,-4,1,-4,-3,-11,-1
16:24:52.216934,-6,0,-2,-2,-2,-4,-8,-3
16:24:52.223931,0,-2,0,-2,-5,-1,2,1
16:24:52.239921,-2,0,-2,1,4,5,7,-6
16:24:52.246915,0,-2,-2,1,2,0,3,1
16:24:52.261907,1,-1,-3,-2,-4,1,-1,-4
16:24:52.262907,2,-1,-3,-2,3,2,3,2
16:24:52.276897,-1,0,1,1,3,7,6,3
16:24:52.291888,-3,-2,-1,-1,-2,1,-1,0
16:24:52.299883,-1,-3,-2,3,2,1,-5,8
16:24:52.306878,-2,-4,0,-4,-3,0,1,-3
16:24:52.321869,-3,-1,-3,-2,-3,-7,0,-4
16:24:52.322869,-4,-3,-2,-3,-3,-6,7,7
16:24:52.336861,1,3,2,1,2,5,-7,6
16:24:52.344855,-2,-2,0,-1,-4,0,5,-2
16:24:52.359846,-2,0,0,-2,-7,0,-2,0
16:24:52.366844,-1,-1,0,-3,-3,0,0,1
16:24:52.381833,2,-3,-2,0,-3,1,-1,-3
16:24:52.382834,-1,-1,0,-2,0,6,3,2
16:24:52.396853,0,-6,-3,-5,-4,-2,0,0
16:24:52.411814,0,-2,0,-3,-1,-1,1,0
16:24:52.419810,4,-1,0,0,-1,-4,6,11
16:24:52.426869,-3,-1,-3,-2,-3,-6,-6,-8
16:24:52.441796,3,3,0,0,-2,3,7,8
16:24:52.442795,-3,-3,0,-2,2,-1,-2,-3
16:24:52.456788,-1,-1,-2,1,-2,-7,-7,1
16:24:52.464788,1,0,3,0,0,5,10,5
16:24:52.479772,1,-2,0,1,7,6,3,2
16:24:52.486780,-4,0,-1,-3,-2,-1,-1,-1
16:24:52.501759,0,1,-1,1,-3,-2,4,2
16:24:52.502759,3,3,2,1,-2,-1,-2,2
16:24:52.516750,-3,-2,-1,-3,-4,-1,-4,-7
16:24:52.531742,3,3,2,2,2,4,0,2
16:24:52.539736,-2,-1,-4,-3,-1,0,4,-4
16:24:52.546731,-2,-2,-1,0,-1,0,-1,-2
16:24:52.561723,1,-2,3,-3,1,-1,-2,0
16:24:52.562745,1,3,0,2,1,-1,9,-1
16:24:52.576715,0,-1,0,1,-1,-2,0,1
16:24:52.584708,-3,-3,-1,0,0,-2,4,-2
16:24:52.599699,0,-2,0,0,2,1,0,2
16:24:52.606693,-5,-2,-1,-3,1,-1,-7,-4
16:24:52.621687,4,2,2,3,4,4,11,5
16:24:52.622686,-2,0,1,-1,1,-4,-1,-3
16:24:52.636677,-1,-1,1,-2,-1,3,-13,-4
16:24:52.644671,-1,-2,1,1,2,1,2,0
16:24:52.659662,2,1,-1,0,-4,-2,1,0
16:24:52.666660,6,0,4,0,1,-4,1,3
16:24:52.681648,-4,-2,-2,-2,-1,-1,0,-3
16:24:52.682649,-1,-1,1,0,1,-3,-3,-10
16:24:52.711630,-2,-4,-3,-5,-1,-6,-3,0
16:24:52.712630,1,1,1,-1,4,0,2,3
16:24:52.719626,1,3,1,-1,-3,1,-4,1
16:24:52.734615,-2,-2,0,-2,0,-2,-1,0
16:24:52.741611,2,1,1,1,5,-7,-17,3
16:24:52.742615,2,2,-1,-1,-1,-1,-9,0
16:24:52.756605,0,-2,1,2,-3,-3,3,0
16:24:52.764606,1,-2,-2,-1,2,0,0,-1
16:24:52.779589,-2,1,-3,1,-1,-3,-3,-1
16:24:52.786586,-2,0,-3,-3,-4,-6,-11,-11
16:24:52.801600,4,1,1,-1,5,7,9,11
16:24:52.802575,-4,-1,-2,-4,-1,-8,-7,-14
16:24:52.816568,0,2,-2,1,-2,-6,-10,0
16:24:52.824560,1,-1,0,0,2,3,-1,-1
16:24:52.846606,-2,-2,-3,-1,0,2,-7,0
16:24:52.847545,1,3,2,2,3,-2,1,3
16:24:52.862540,1,0,-3,1,-3,2,0,2
16:24:52.862540,-1,-2,1,2,-1,-4,-3,-5
16:24:52.877532,-1,-4,-1,-2,2,3,0,1
16:24:52.884526,-2,0,2,0,-1,1,-7,-6
16:24:52.899515,0,-1,1,3,4,1,-2,-6
16:24:52.907510,3,2,0,1,3,3,-7,4
16:24:52.922503,-1,-3,-2,-1,-4,-2,-1,-6
16:24:52.929498,1,-2,0,-4,2,1,3,0
16:24:52.959478,1,-1,-1,2,6,2,4,0
16:24:52.960477,-3,0,-2,-2,-1,-1,-2,-2
16:24:52.960477,0,-1,0,-1,-1,4,3,-1
16:24:52.967473,2,0,-3,0,3,5,0,2
16:24:52.982464,1,0,0,2,0,-3,1,0
16:24:52.989462,-2,0,-2,-3,-1,2,-10,-8
16:24:53.004453,0,1,1,1,-1,1,4,9
16:24:53.005452,-2,-3,-3,-3,-4,-3,-1,-7
16:24:53.019442,-3,-1,0,-1,2,-1,7,0
16:24:53.027438,0,-2,1,2,0,-2,0,-2
16:24:53.042427,-1,-1,-1,3,-3,-6,-11,-1
16:24:53.057418,0,0,-3,0,1,-2,-1,-1
16:24:53.064412,0,-2,2,-1,-3,-3,-5,-1
16:24:53.065413,-1,-1,0,-1,0,1,-12,-9
16:24:53.079403,-2,1,-2,0,-2,0,-2,3
