timestamp,emg1,emg2,emg3,emg4,emg5,emg6,emg7,emg8
16:25:13.360920,-4,-2,-1,-3,-2,-1,-2,-2
16:25:13.361918,0,-1,-2,-1,-3,-1,0,1
16:25:13.382906,0,1,-2,-1,-2,0,2,-2
16:25:13.382906,-2,0,0,1,-1,-5,1,-2
16:25:13.396896,1,1,2,2,2,1,7,9
16:25:13.398897,-2,-2,0,-2,-2,0,2,1
16:25:13.417885,-3,0,-3,-1,-1,-2,-11,-1
16:25:13.420882,0,-1,2,-2,-5,-1,6,3
16:25:13.434873,2,1,1,0,4,-1,2,-1
16:25:13.442869,1,-3,-1,0,-1,0,2,1
16:25:13.468853,0,3,-2,2,-1,-5,2,0
16:25:13.468853,3,0,1,2,-2,2,6,1
16:25:13.479846,-3,0,0,0,-2,2,-1,-4
16:25:13.480845,-2,-2,-3,1,0,0,2,-3
16:25:13.494836,1,-1,0,-1,-1,-1,-6,-3
16:25:13.501832,1,-2,3,0,-1,1,-2,0
16:25:13.517822,-1,0,-2,1,-1,-1,-1,-3
16:25:13.517822,-3,0,-3,0,2,-1,-9,-7
16:25:13.531813,3,0,2,1,-3,3,4,16
16:25:13.539809,1,0,1,-2,-4,-9,-7,-4
16:25:13.554800,2,-1,-1,1,0,4,-1,0
16:25:13.561794,1,1,-1,-1,-2,-1,0,1
16:25:13.576786,-3,1,-2,0,1,-1,6,-3
16:25:13.577785,-1,-3,0,-1,0,5,-1,-2
16:25:13.591776,1,-1,-1,-2,-1,2,-3,-2
16:25:13.599772,1,2,0,-4,-3,2,2,2
16:25:13.614762,-1,2,0,-2,2,0,2,5
16:25:13.621758,0,-3,1,-1,-5,-1,1,-1
16:25:13.636809,0,3,-1,0,0,-2,-3,2
16:25:13.637749,0,-2,0,-1,3,2,3,0
16:25:13.652739,-3,-3,-1,-1,-3,1,-3,-6
16:25:13.659737,0,-3,1,-2,3,1,5,3
16:25:13.689716,-1,0,-2,1,3,1,10,7
16:25:13.689716,-4,1,-1,1,0,5,-1,2
16:25:13.704710,-3,2,-1,-1,2,-1,1,-2
16:25:13.704710,-5,-3,-4,-2,-2,-10,-22,-9
16:25:13.711704,7,5,2,3,3,1,-2,16
16:25:13.719698,-4,-1,-1,0,-4,0,1,-3
16:25:13.734691,1,0,1,-3,1,-1,-3,-4
16:25:13.741685,0,1,0,-2,-3,7,4,3
16:25:13.756676,0,0,-1,0,-2,0,2,3
16:25:13.764679,0,0,1,2,1,-2,2,0
16:25:13.771674,-2,-4,-1,-4,-1,-6,-8,-1
16:25:13.779662,0,1,1,-1,1,-1,6,-3
16:25:13.794652,-4,2,1,-4,-4,-3,-4,-6
16:25:13.802647,-4,0,1,-2,1,0,2,0
16:25:13.817638,0,0,-2,-3,-7,1,7,-7
16:25:13.832629,-3,-1,-3,-3,0,-1,-3,-3
16:25:13.839624,-1,-2,2,-1,-1,-3,-1,-2
16:25:13.840623,-1,-1,-1,-4,-8,-6,2,-4
16:25:13.854615,1,-3,-1,1,1,-3,-3,0
16:25:13.861610,-1,0,-3,-6,-1,-1,-1,-1
16:25:13.877600,-2,-2,0,-1,0,3,2,-1
16:25:13.884596,-2,0,-1,-2,1,-3,-4,1
16:25:13.899588,2,-3,-5,0,-5,-3,4,1
16:25:13.900587,-4,-1,1,-2,0,-1,-4,-4
16:25:13.921573,1,-5,-2,0,1,-4,-3,-1
16:25:13.922572,-1,-2,-1,0,-3,8,1,-2
16:25:13.937564,-1,0,0,0,-1,0,8,2
16:25:13.944559,-2,-1,-4,-1,-1,3,1,-4
16:25:13.959551,-1,0,-3,-2,-4,-3,-2,0
16:25:13.959551,0,-1,0,-2,0,-4,-7,-8
16:25:13.974541,-1,-3,-1,0,-4,-4,1,2
16:25:13.982537,0,3,0,-3,-1,-2,0,-3
16:25:13.997528,0,0,0,1,4,-2,1,-2
16:25:14.004522,5,-1,-1,-1,1,1,2,-3
16:25:14.019512,-1,0,-2,1,3,1,-2,-2
16:25:14.020513,-5,-1,-1,0,2,1,-16,-14
16:25:14.034504,-2,-4,-2,-1,0,-9,-23,1
16:25:14.049495,-1,-2,-2,-2,-2,-3,1,-5
16:25:14.056492,1,-2,0,0,0,-2,-3,-1
16:25:14.064485,1,-2,-1,0,-3,-2,5,2
16:25:14.079476,-2,2,-1,-1,-2,0,5,4
16:25:14.079476,-3,-3,2,2,2,-4,-8,-6
16:25:14.094467,1,0,-1,-3,-11,-3,-4,-4
16:25:14.102465,-3,1,-1,-1,-3,-3,-7,-1
16:25:14.117453,1,1,-1,1,2,3,4,-1
16:25:14.124448,6,-1,1,-2,-1,2,27,32
16:25:14.139439,-4,-3,1,-1,-2,-8,-16,-5
16:25:14.140438,-3,2,2,2,2,1,1,-3
16:25:14.154430,-2,-3,-1,-3,-3,-1,0,-2
16:25:14.162425,-1,-3,-3,-3,-1,3,2,0
16:25:14.177416,1,0,-2,-5,0,3,-1,-2
16:25:14.184412,-1,1,0,-1,-1,-2,-5,-3
16:25:14.199402,1,-2,-2,-3,-6,-9,-6,4
16:25:14.200403,0,-1,1,1,0,-2,-8,-3
16:25:14.215394,-2,-2,-1,-3,-1,-5,3,-7
16:25:14.222388,0,0,-2,1,-3,0,-2,-1
16:25:14.237380,0,1,-1,-2,-2,2,0,-5
16:25:14.244459,2,2,1,2,-1,1,-6,-1
16:25:14.259365,0,1,-2,-2,-1,3,2,-1
16:25:14.260366,2,-1,2,-1,0,3,7,6
16:25:14.274356,-2,2,-1,-3,2,-3,-4,-2
16:25:14.282358,3,-1,-3,-1,-1,-1,0,-4
16:25:14.297343,1,2,0,-1,-1,3,-1,8
16:25:14.304345,1,0,0,-1,-3,10,8,3
16:25:14.319330,-2,-3,-1,-2,1,0,3,-6
16:25:14.320330,0,0,1,5,3,1,-1,-4
16:25:14.334321,-2,-2,1,-3,0,-4,-18,-3
16:25:14.342321,2,-1,1,3,3,0,11,-2
16:25:14.357307,2,2,0,4,3,5,4,3
16:25:14.364302,-2,0,1,2,1,-2,0,-1
16:25:14.379291,2,1,1,-3,0,-4,0,1
16:25:14.380291,2,3,-2,-1,-1,1,11,4
16:25:14.394283,-1,-1,-2,-1,-3,-4,-9,-8
16:25:14.402278,-1,0,-1,2,2,0,-5,-6
16:25:14.417269,1,-2,-2,0,3,2,-19,3
16:25:14.424265,-1,-1,0,0,-1,-5,4,-4
16:25:14.439254,2,-3,-1,-3,-9,-4,0,1
16:25:14.440261,3,-2,3,-1,2,-3,-1,7
16:25:14.454247,1,-1,-1,-1,2,1,-2,-5
16:25:14.462241,-2,-3,2,-3,-2,-3,1,1
16:25:14.477232,-1,-1,1,0,2,1,-1,4
16:25:14.492223,-1,0,0,-4,0,0,-5,-8
16:25:14.507215,5,1,1,0,1,3,13,15
16:25:14.507215,3,2,-2,0,2,2,-4,-4
16:25:14.515209,1,1,-1,-4,-4,-7,-4,3
16:25:14.522205,0,1,0,-3,1,8,3,1
16:25:14.537194,-1,-1,-3,-3,0,-5,-9,5
16:25:14.544191,-2,0,-2,1,1,2,3,-3
16:25:14.559184,-1,0,-2,-2,-3,-5,3,-2
16:25:14.560180,1,3,1,1,-1,1,8,-2
16:25:14.574172,-3,-1,0,-2,0,-3,-12,-8
16:25:14.582166,2,1,3,2,4,3,11,7
16:25:14.597157,-1,-2,0,-3,1,-2,-2,-2
16:25:14.605153,-2,-3,2,-1,1,-2,-1,-6
16:25:14.619144,2,0,0,-3,-4,-2,9,-1
16:25:14.620143,2,2,4,-1,2,2,-7,3
16:25:14.635135,-1,-2,0,-1,2,9,14,2
16:25:14.642131,1,-2,0,1,7,5,-3,-4
16:25:14.657121,1,-1,0,-1,-6,-11,-21,5
16:25:14.665116,0,1,3,1,1,2,-1,-2
16:25:14.679110,-1,1,-1,-3,-4,-4,-1,0
16:25:14.680106,-4,-1,-1,-2,0,1,-3,-3
16:25:14.695104,6,-2,1,1,0,4,15,21
16:25:14.702094,-1,-3,-1,3,1,-3,-4,-2
16:25:14.717083,-1,0,0,-5,-2,0,-2,-7
16:25:14.732074,2,-1,4,9,17,7,-1,2
16:25:14.740069,0,-2,-3,-20,-24,2,-3,-8
16:25:14.747064,-3,-2,2,35,13,0,7,-2
16:25:14.762057,-4,-2,-3,13,-5,-5,-19,-6
16:25:14.763055,1,1,2,5,-6,-13,2,3
16:25:14.777046,-2,-3,1,6,16,1,0,-3
16:25:14.785042,0,0,-3,-6,5,1,0,-2
16:25:14.800033,0,1,-1,-2,-3,-1,-6,3
16:25:14.815024,-1,-3,0,0,-2,-4,-9,-6
16:25:14.822019,-3,0,2,-3,-1,8,6,-2
16:25:14.823018,1,-2,-2,-2,1,-2,-3,-4
16:25:14.837009,-1,-1,0,2,0,-3,-3,-4
16:25:14.845005,-2,0,2,0,1,-2,-4,-5
16:25:14.859995,0,0,-1,6,6,2,4,3
16:25:14.867002,1,3,0,-9,-3,2,-2,0
16:25:14.881983,1,-1,-4,1,-3,2,0,0
16:25:14.882983,-4,-4,-1,-5,3,0,-3,-6
16:25:14.896973,-4,1,0,3,-4,-5,-11,-5
16:25:14.904968,1,0,0,2,1,-7,-11,-1
16:25:14.919969,-1,-1,1,-1,-2,-2,3,-4
16:25:14.926954,-6,-1,2,-1,2,0,-1,-1
16:25:14.941946,-8,-7,-5,-3,-5,-7,-3,-8
16:25:14.942944,1,-3,0,8,5,-1,-1,-3
16:25:14.956935,-3,0,3,17,7,-3,-2,-4
16:25:14.964931,-5,0,-2,-19,-20,-10,-15,-18
16:25:14.979923,8,1,-2,3,3,6,6,2
16:25:14.986941,1,-1,-1,-1,-1,1,6,6
16:25:15.001908,-1,-4,1,1,0,0,-3,-1
16:25:15.002908,0,3,-1,0,-4,-1,1,-4
16:25:15.016953,1,-1,0,-3,-5,1,2,0
16:25:15.024894,-3,-2,2,1,4,3,-7,-7
16:25:15.039886,0,-2,0,-2,-5,5,3,1
16:25:15.054877,1,-1,3,2,4,12,2,-1
16:25:15.061874,-10,-5,-2,5,-1,-8,-13,-18
16:25:15.062870,0,1,1,-4,2,-1,-1,-1
16:25:15.076874,-1,-1,0,3,2,-2,-9,-7
16:25:15.084858,1,-4,-4,-3,-3,-2,-2,-1
16:25:15.099849,0,0,-1,1,-2,-1,-1,-2
16:25:15.106845,-1,0,-2,0,-1,4,-2,-3
16:25:15.121840,-1,0,-1,21,13,1,2,3
16:25:15.122834,4,3,-1,-14,-8,2,2,0
16:25:15.136835,2,-2,7,12,3,-1,0,-1
16:25:15.144821,1,0,-1,6,3,1,1,2
16:25:15.159812,-1,0,-11,2,7,1,-1,-2
16:25:15.166808,0,1,-2,-12,11,4,0,0
16:25:15.181798,-1,-2,8,27,51,7,-1,-3
16:25:15.182808,3,4,-14,-23,-32,-7,0,4
16:25:15.196789,-3,-1,17,7,4,-3,-2,-4
16:25:15.204784,0,-1,-11,-7,30,14,5,2
16:25:15.219776,0,2,8,87,-41,-8,2,-3
16:25:15.235765,1,0,19,19,78,28,-1,0
16:25:15.241760,3,-3,1,-20,126,8,4,4
16:25:15.242787,-9,-6,-24,127,-128,-28,-3,-5
16:25:15.256777,5,-12,-113,-80,-128,-28,-1,2
16:25:15.264747,-6,9,51,48,127,72,5,-3
16:25:15.279738,8,2,-66,-103,109,-12,0,6
16:25:15.286734,-23,-28,-91,11,-128,-109,-28,-25
16:25:15.301725,4,22,90,105,127,33,8,1
16:25:15.302742,-3,-18,6,127,127,2,-3,0
16:25:15.324711,2,2,-128,108,127,-56,-17,-8
16:25:15.324711,-49,-44,40,59,127,-60,-32,-40
16:25:15.339702,-8,-21,-79,113,127,34,-11,-18
16:25:15.346697,-9,-51,34,-128,127,-75,-14,3
16:25:15.362686,23,82,127,85,127,126,28,9
16:25:15.363687,-17,-8,-128,127,127,-76,-36,-24
16:25:15.384673,-3,-20,76,-128,127,16,-3,-1
16:25:15.385673,17,14,71,15,127,-3,6,17
16:25:15.399664,-5,-29,-16,127,127,53,5,4
16:25:15.406661,36,58,39,-28,127,-9,15,25
16:25:15.421655,-7,-47,-52,-102,-31,0,2,-2
16:25:15.422650,16,33,24,-8,-72,5,5,8
16:25:15.444635,8,8,10,124,-51,-5,3,6
16:25:15.444635,-4,-7,-11,-53,-38,0,-3,-7
16:25:15.473618,-3,-1,13,-12,-27,-2,0,-4
16:25:15.474618,-13,-14,-31,-88,-13,5,4,3
16:25:15.481614,5,7,36,127,-16,-7,0,0
16:25:15.483612,-6,-28,-37,-8,35,6,1,2
16:25:15.504599,6,12,-24,-117,36,10,4,2
16:25:15.512594,-27,-44,-17,102,107,1,-15,-16
16:25:15.519598,14,-6,7,21,20,33,18,14
16:25:15.549571,19,43,84,127,127,60,17,12
16:25:15.549571,14,0,12,74,45,24,2,13
16:25:15.550573,-10,-5,-13,-120,-105,-106,-11,-3
16:25:15.565562,-33,-58,-67,-128,-119,-19,-8,-9
16:25:15.565562,19,13,-20,-128,-60,13,8,12
16:25:15.579553,6,4,16,12,-73,-16,1,4
16:25:15.587548,-8,-16,-32,103,-70,-57,-4,3
16:25:15.601539,29,63,91,127,127,36,7,6
16:25:15.602539,-25,-47,-33,-55,-61,-2,-7,-10
16:25:15.624524,1,2,2,54,43,-16,2,-1
16:25:15.625526,9,34,44,84,84,58,4,-2
16:25:15.639516,-32,-57,-48,-46,10,-44,-14,-15
16:25:15.654506,2,5,9,65,4,4,-1,-3
16:25:15.661502,-4,-1,-3,-14,-1,4,-3,-3
16:25:15.669498,-4,-21,-65,13,57,-9,-2,3
16:25:15.684488,-7,-10,8,34,-41,-18,-5,-3
16:25:15.685488,12,18,8,-60,-62,-5,5,8
16:25:15.699478,-3,-7,-19,-30,-20,-4,-3,-4
16:25:15.708473,-4,-10,5,46,125,11,2,2
16:25:15.732459,-4,-20,-23,-64,2,-10,-1,3
16:25:15.735457,16,23,-9,-30,32,9,4,6
16:25:15.745450,-9,-39,-54,55,127,18,-1,-3
16:25:15.745450,-10,-14,-13,-17,-28,-4,-5,-10
16:25:15.760443,13,10,27,-27,10,-2,10,11
16:25:15.767437,15,38,-6,-128,-78,7,1,6
16:25:15.782428,-9,-11,-20,-32,-73,-17,-4,-5
16:25:15.789424,12,26,30,-44,29,16,-1,4
16:25:15.804414,2,6,3,-56,-33,11,0,1
16:25:15.820405,-20,-46,22,127,25,-8,0,-4
16:25:15.820405,26,47,22,-26,-11,-2,6,10
16:25:15.828400,6,13,32,69,43,-3,3,5
16:25:15.849387,-11,-23,2,86,126,34,-7,-8
16:25:15.850386,9,13,8,-21,11,-21,4,7
16:25:15.865377,-2,-3,-19,-47,20,-2,-1,2
16:25:15.866377,-7,-22,-31,-17,-4,15,3,6
16:25:15.879368,1,22,27,3,59,1,-4,-4
16:25:15.887364,18,46,12,-94,-103,-7,-4,0
16:25:15.902354,-15,-17,-8,9,75,6,-6,-13
16:25:15.909350,9,14,-7,-59,45,-13,2,3
16:25:15.926340,15,36,19,-43,-43,-15,-1,6
16:25:15.926340,-18,-25,-13,-27,-51,10,-6,-5
16:25:15.939331,-15,-19,0,71,90,0,-6,-8
16:25:15.954325,8,23,25,-14,1,13,3,5
16:25:15.962317,0,8,-1,-16,9,-15,0,-4
16:25:15.969313,-9,-7,7,85,6,-6,-3,-5
16:25:15.984304,6,7,-8,-22,-63,11,3,1
16:25:15.985303,-7,-13,-13,-29,-128,-18,-2,-3
16:25:15.999295,-2,-1,6,19,-77,-16,-2,-3
16:25:16.007290,1,-10,-14,4,-50,-44,-3,7
16:25:16.022280,-20,-31,-7,30,17,-1,-6,-10
16:25:16.030276,-6,-18,28,127,81,9,9,4
16:25:16.044267,4,11,11,5,0,2,-1,-1
16:25:16.045266,-5,-2,-4,19,-5,3,3,-3
16:25:16.059258,5,6,27,48,-21,8,-3,2
16:25:16.067253,3,9,-7,-23,-56,-1,2,3
16:25:16.082244,-6,-11,-10,22,22,10,1,-4
16:25:16.089238,6,16,8,-8,76,-14,-2,-1
16:25:16.104229,-4,1,15,53,70,4,-3,-6
16:25:16.105229,-11,-19,-44,-46,-42,-17,-2,2
16:25:16.127215,1,-12,-22,48,-51,-39,1,3
16:25:16.127215,2,9,10,-33,-19,6,-2,-2
16:25:16.142206,-11,-17,-43,-79,-116,-9,1,-2
16:25:16.157197,-13,-36,-42,17,23,23,0,-4
16:25:16.164193,20,26,28,52,-34,-16,5,11
16:25:16.165192,3,10,19,-17,-128,-17,-1,-1
16:25:16.179183,-23,-32,6,58,37,17,-4,-11
16:25:16.187178,-6,-5,-19,-65,-33,-15,0,-3
16:25:16.209165,-10,-18,-21,7,14,-4,-3,-5
16:25:16.210165,-8,-17,-18,-23,-111,-25,-2,-5
16:25:16.224155,-12,-42,-29,30,76,-20,-4,-4
16:25:16.225155,3,5,17,18,44,36,3,1
16:25:16.239146,3,0,17,-3,-89,-17,-4,-1
16:25:16.247141,-26,-52,-36,9,-7,-27,-9,-10
16:25:16.262133,8,-3,-14,-34,-128,-24,-6,6
16:25:16.277123,18,40,16,-5,32,-3,3,9
16:25:16.284119,-10,-18,10,47,11,-3,-5,-6
16:25:16.285118,10,27,16,-54,-121,-16,0,1
16:25:16.300110,3,10,9,5,-11,13,8,3
16:25:16.307105,14,39,52,91,108,-1,1,5
16:25:16.322096,32,87,34,-128,-75,4,2,5
16:25:16.329090,-21,-17,-15,-41,89,51,-8,-13
16:25:16.344082,5,-2,9,91,52,1,4,3
16:25:16.345081,29,58,43,12,59,6,8,11
16:25:16.359072,-4,-9,-4,2,-128,-3,1,-7
16:25:16.367068,-29,-63,-38,77,-52,-25,-10,-12
16:25:16.383059,5,0,-20,-46,-45,-6,5,5
16:25:16.390054,17,40,15,-13,-34,-3,-1,5
16:25:16.405045,3,15,51,127,119,4,6,2
16:25:16.405045,16,56,79,41,127,-13,4,6
16:25:16.420035,9,20,-41,-128,-2,-2,3,1
16:25:16.434026,14,0,59,127,-128,14,12,11
16:25:16.442022,26,28,-4,-108,111,-4,8,11
16:25:16.451017,-4,-4,-32,-121,127,22,3,1
16:25:16.465007,-25,-72,-95,-128,-128,-106,-12,-3
16:25:16.465007,6,39,100,127,127,47,-5,-7
16:25:16.478999,-5,-40,-31,-7,-128,25,11,5
16:25:16.486994,3,-37,-53,-128,-4,-84,2,12
16:25:16.501986,24,84,65,-67,-46,34,1,-4
16:25:16.509981,-14,-17,-41,-54,21,-41,-7,-2
16:25:16.531966,5,-4,10,127,127,38,5,3
16:25:16.532966,-8,-21,51,127,80,18,3,1
16:25:16.539961,16,41,7,-128,127,-44,2,6
16:25:16.546956,-3,-13,22,4,38,30,-1,-4
16:25:16.569943,13,25,43,127,-43,5,6,6
16:25:16.584934,3,6,-4,-33,-33,-8,2,2
16:25:16.584934,-3,1,1,2,-5,-1,-2,-2
16:25:16.585934,1,-4,-2,-1,-1,-1,-2,1
16:25:16.599926,-2,-2,0,14,15,9,7,0
16:25:16.607920,-11,4,5,6,9,11,-4,27
16:25:16.621911,20,-14,-20,-13,-22,-40,-64,-39
16:25:16.629906,-42,-19,7,12,16,36,37,46
16:25:16.651892,-15,7,0,3,1,10,-4,29
16:25:16.652892,-31,-17,-15,-22,-24,-27,-8,-14
16:25:16.666883,47,16,15,11,20,24,62,-40
16:25:16.667884,-71,-21,-7,-8,2,-13,-128,1
16:25:16.681875,33,10,-3,-6,-10,20,3,-128
16:25:16.689870,-84,-32,7,9,36,71,-128,127
16:25:16.704860,-27,-12,-17,-13,-42,-40,-64,-55
16:25:16.711856,-2,13,21,20,26,64,80,122
16:25:16.726847,-128,-76,-18,-17,2,0,-128,127
16:25:16.727846,38,7,-16,-10,-35,-19,35,-71
16:25:16.741837,-97,-27,3,16,15,57,110,-109
16:25:16.766822,48,10,-11,-20,-28,-60,75,-7
16:25:16.767821,0,12,9,11,23,28,62,-10
16:25:16.800802,-26,-8,-5,15,8,14,-23,-1
16:25:16.804799,-29,-38,-42,-128,-4,9,-17,-10
16:25:16.805799,35,19,-12,-104,-86,-53,-53,-22
16:25:16.810794,-13,-42,-35,40,-68,48,26,61
16:25:16.827784,78,-22,52,112,89,19,17,-5
16:25:16.829783,-13,72,-29,46,16,-4,17,-17
16:25:16.832781,-12,-26,48,31,127,19,-27,-26
16:25:16.856768,21,-34,-104,3,-22,-54,-83,-61
16:25:16.857767,30,62,93,127,127,-39,17,35
16:25:16.861765,97,5,37,14,57,50,92,127
16:25:16.869758,-75,28,4,-128,-120,-17,8,-54
16:25:16.884749,-4,30,-2,56,26,-8,-4,-23
16:25:16.891745,16,-6,88,110,31,-28,-32,9
16:25:16.907735,-115,38,2,15,-30,-2,-106,-95
16:25:16.907735,-33,2,-10,-5,62,-20,20,24
16:25:16.929722,-19,-1,8,109,127,37,4,-13
16:25:16.931721,8,-5,-3,-81,-120,-40,2,21
16:25:16.944712,9,7,36,61,-55,3,-3,5
16:25:16.966700,-6,-16,13,55,-61,23,-4,-9
16:25:16.969699,45,3,35,38,41,25,22,-11
16:25:16.969699,-16,-7,-76,-128,-80,9,10,5
16:25:16.982690,95,10,23,65,12,-22,-11,50
16:25:16.998679,-20,-1,3,25,94,-7,-1,-21
16:25:17.004676,-17,-10,9,-32,78,-27,-21,-22
16:25:17.011671,-27,10,21,29,36,-1,-2,-13
16:25:17.026662,0,-5,29,10,45,20,4,0
16:25:17.027662,15,-3,-11,-43,-109,-22,-4,1
16:25:17.041653,-17,-3,8,-2,-30,-6,-19,-13
16:25:17.049647,8,0,6,82,66,-13,-17,31
16:25:17.064639,-11,4,24,44,-27,-6,1,-8
16:25:17.072635,-5,-7,-6,12,-8,1,-3,2
16:25:17.086634,19,10,19,59,45,8,-9,20
16:25:17.087624,1,2,11,-5,127,14,2,14
16:25:17.102615,-19,3,8,-7,-54,-8,-7,-21
16:25:17.109611,-2,2,-30,-128,-22,20,13,10
16:25:17.124602,-12,-17,-8,14,72,2,-4,-11
16:25:17.132597,-2,8,1,-12,-21,-15,3,-13
16:25:17.146589,0,-6,-3,10,24,13,-1,9
16:25:17.147589,-16,-3,4,-37,-33,28,17,0
16:25:17.162578,-17,-1,-6,12,21,-9,-5,-16
16:25:17.169573,8,-5,1,-25,16,13,-7,8
16:25:17.184573,0,5,4,96,19,6,2,0
16:25:17.191561,-5,-3,8,38,46,11,14,-6
16:25:17.206552,4,2,-3,0,22,-4,-6,0
16:25:17.215546,-13,0,10,26,20,2,-3,-19
16:25:17.222541,-5,-4,-17,-9,53,-8,-12,0
16:25:17.229537,17,-8,-3,-27,-45,-5,4,-2
16:25:17.244528,6,5,-1,-40,-57,5,1,9
16:25:17.252527,2,-1,0,27,29,-5,4,10
16:25:17.267523,-3,-3,4,44,33,0,-3,-8
16:25:17.267523,2,2,-1,-18,-37,6,5,13
16:25:17.282505,1,1,0,5,10,4,1,-1
16:25:17.289500,-2,0,1,0,-5,1,-2,-1
16:25:17.312486,7,1,2,-2,-17,-4,0,4
16:25:17.312486,-8,-4,-6,-7,-6,4,-1,-9
16:25:17.327477,2,1,3,53,-14,-6,-4,-4
16:25:17.327477,1,4,0,9,13,0,10,15
16:25:17.342468,-8,-3,-3,12,61,-4,-6,-9
16:25:17.349463,-1,-1,0,-7,-39,0,4,3
16:25:17.364454,-6,-6,-8,-19,2,-2,-5,-3
16:25:17.372450,-2,1,2,9,-9,1,8,1
16:25:17.387440,4,0,1,0,7,5,13,11
16:25:17.387440,-1,0,-3,-39,-47,-2,2,-3
16:25:17.402432,-6,-6,-5,63,20,-11,-18,-10
16:25:17.417422,-2,-4,3,11,3,-1,0,2
16:25:17.424418,-3,-1,0,-3,-5,2,-2,-7
16:25:17.432412,-2,-3,-3,-11,-34,-4,-2,0
16:25:17.447402,-2,1,0,-12,24,5,2,1
16:25:17.454402,-5,-5,-1,-6,17,0,1,-2
16:25:17.462394,-2,-4,-5,2,22,0,-9,-5
16:25:17.469389,0,1,3,13,8,6,2,2
16:25:17.492375,5,1,-1,-24,-20,-6,-1,-5
16:25:17.492375,0,-4,-1,1,-5,-5,-3,-4
16:25:17.507366,-2,0,0,-1,10,0,-1,-1
16:25:17.507366,2,-1,-1,-1,11,8,3,2
16:25:17.522357,0,-2,1,5,-1,2,-11,1
16:25:17.529355,7,0,-1,-3,1,1,-11,3
16:25:17.544344,0,1,-1,-7,2,-4,0,0
16:25:17.552339,-4,0,0,-4,-10,-5,-2,-2
16:25:17.574325,-5,-5,-3,2,5,2,-4,-7
16:25:17.575324,2,3,3,21,9,13,20,8
16:25:17.582320,0,1,1,-3,-7,-1,-4,-2
16:25:17.589315,-1,0,0,1,6,5,11,3
16:25:17.604308,-1,-1,-2,-4,2,-2,-4,-7
16:25:17.612302,-1,-4,0,-1,-1,0,0,0
16:25:17.627292,-1,-3,-1,-1,3,-2,-3,-3
16:25:17.635287,-5,-1,0,-1,0,0,0,-1
16:25:17.649279,-3,0,1,2,-1,0,17,14
16:25:17.650278,3,2,2,4,10,6,3,5
16:25:17.664270,-1,-1,-1,-1,-2,-2,-1,-2
16:25:17.672265,-5,-3,1,-1,1,-6,-5,-4
16:25:17.687256,-3,-3,-3,-1,-1,-2,7,-1
16:25:17.694252,2,0,2,-1,1,1,-11,0
16:25:17.709242,-1,-1,-4,-1,2,5,7,2
16:25:17.710241,-4,0,-1,0,1,2,0,-1
16:25:17.724234,1,-3,0,0,1,-1,1,-1
16:25:17.732228,-5,5,1,2,7,11,2,2
16:25:17.747218,0,-5,-3,-3,-3,-8,-7,-14
16:25:17.755214,-1,-1,-3,-2,3,2,-1,0
16:25:17.769205,3,3,2,4,4,5,10,5
16:25:17.770204,1,-2,2,-1,0,-5,-16,1
16:25:17.792192,2,-2,-1,0,-2,3,3,7
16:25:17.793191,-4,-4,-5,-1,-9,-1,-2,0
16:25:17.807181,-4,-4,-3,-1,-4,-7,-4,-5
16:25:17.815177,9,2,2,-2,4,2,13,10
16:25:17.829167,0,-2,-2,-1,0,-3,-3,-5
16:25:17.830168,4,-6,-4,-3,-1,2,2,4
16:25:17.845158,-4,-1,-2,-4,-1,2,1,2
16:25:17.852154,-1,-1,1,0,-2,-1,-3,-1
16:25:17.874141,-2,-3,-2,-2,-1,0,2,-4
16:25:17.875140,0,-2,-1,-3,0,1,6,-2
16:25:17.889135,-5,-3,0,3,0,0,9,1
16:25:17.890130,2,0,0,1,3,-2,0,1
16:25:17.905121,1,0,2,1,8,10,19,1
16:25:17.912116,-5,-1,0,-3,-3,0,6,-16
16:25:17.927109,-1,4,1,-1,2,10,12,2
16:25:17.942099,3,1,0,0,3,1,5,5
16:25:17.950094,-2,-2,-3,-3,-1,-3,-5,-7
16:25:17.950094,-2,1,1,-2,-2,-2,1,-4
16:25:17.964087,0,2,1,-1,3,2,-2,4
16:25:17.972080,-9,-2,-2,1,-9,-3,-3,-3
16:25:17.994067,-3,-4,-5,-3,-7,-2,-3,-4
16:25:17.995075,-1,2,-5,-1,-3,-1,-3,0
16:25:18.017052,1,-2,-4,-2,-3,-3,1,-3
16:25:18.018053,-2,-2,2,-1,-1,0,2,2
16:25:18.025049,3,0,-1,0,2,3,-1,0
16:25:18.032043,-1,-4,-2,-4,-6,-5,-4,0
16:25:18.047038,-4,1,-3,-1,1,4,-1,-1
16:25:18.055032,0,-1,3,0,3,1,0,4
16:25:18.070021,0,0,0,-2,-2,-1,6,-2
16:25:18.077019,-3,1,-2,0,-2,-4,-10,1
16:25:18.085010,0,-2,0,-2,-1,-2,-2,-4
16:25:18.106997,1,0,2,-1,0,2,0,0
16:25:18.107996,0,0,1,-1,-3,0,-1,0
16:25:18.114994,7,4,1,7,10,6,10,13
16:25:18.129983,1,-1,-2,-1,-3,-1,-5,-2
16:25:18.137064,2,1,-1,2,3,3,5,13
16:25:18.151969,-2,-1,-4,-3,-9,-12,-6,-7
16:25:18.152970,5,1,0,1,3,9,7,12
16:25:18.166961,-6,-2,-3,0,-5,0,-1,-10
16:25:18.174956,3,-1,0,-2,-2,-10,-12,-2
16:25:18.189946,-4,-2,-1,-3,-3,-6,-1,-4
16:25:18.203938,0,1,2,2,9,9,0,1
16:25:18.205935,-4,-1,0,2,2,4,1,-4
16:25:18.212932,2,5,3,1,5,11,3,0
16:25:18.226925,-1,0,-2,0,-3,-3,-1,-3
16:25:18.234919,-2,0,-3,-1,1,-1,3,1
16:25:18.249909,-2,-1,-1,-1,-1,-4,-3,1
16:25:18.249909,-4,-3,-3,-4,0,3,3,-1
16:25:18.265900,6,1,-2,-1,-4,-1,0,4
16:25:18.271894,-6,-1,-2,1,1,4,0,-3
16:25:18.286886,-1,-1,1,3,1,7,10,-3
16:25:18.294881,-4,-1,1,-2,-2,-4,-4,2
16:25:18.308873,-1,-4,-1,0,-1,-2,-5,-3
16:25:18.309872,0,0,-1,1,-3,-2,0,0
16:25:18.324863,-1,1,-2,-3,-3,-1,-2,-2
16:25:18.332861,-7,-4,-4,-1,0,-2,-3,-2
16:25:18.346850,-4,-2,-1,0,-1,-2,-3,-1
16:25:18.354844,-5,-4,-5,-3,1,1,0,0
16:25:18.377831,2,0,1,-4,-1,-4,-5,0
16:25:18.377831,-1,-2,-2,-3,-5,1,14,-1
16:25:18.384836,-2,-3,-1,-1,2,-2,3,6
16:25:18.391825,0,-2,0,-2,-4,-2,-7,0
16:25:18.414808,2,-2,-2,0,-1,-7,6,-2
16:25:18.415808,7,2,3,2,4,5,1,9
16:25:18.429799,0,-3,1,2,1,2,-3,-2
16:25:18.429799,-1,-3,-2,-4,1,-1,-4,0
16:25:18.444790,1,2,0,0,-2,2,-1,5
16:25:18.451786,-1,-3,-2,0,0,-3,-5,-6
16:25:18.466779,1,-1,1,-3,1,0,-1,1
16:25:18.474770,0,-1,2,2,0,0,-1,0
16:25:18.489762,-1,0,-2,-2,2,8,4,-1
16:25:18.489762,-4,-2,0,1,-2,1,3,-3
16:25:18.504752,2,1,2,1,3,5,5,2
16:25:18.511753,0,-3,0,-4,0,-2,4,4
16:25:18.526740,0,1,-1,-3,-1,-2,0,-1
16:25:18.534733,-1,-1,1,0,-1,2,0,3
16:25:18.549724,2,3,0,6,5,2,4,-2
16:25:18.556721,-1,-2,-3,-1,-5,2,11,16
16:25:18.571710,-4,-1,1,0,-4,-7,-6,-13
16:25:18.572710,2,-2,-4,-2,-4,-10,-13,6
16:25:18.594698,-1,-1,-3,-4,0,3,4,-4
16:25:18.594698,0,0,4,3,5,3,4,2
16:25:18.609688,2,0,1,-3,-3,-3,-8,-4
16:25:18.617684,4,0,-1,2,1,3,13,9
16:25:18.631674,-4,-3,0,-2,-4,1,-5,1
16:25:18.632674,-4,-1,-3,-5,2,1,-8,-6
16:25:18.647665,1,-3,-1,-2,0,-1,-14,2
16:25:18.654660,0,1,3,2,1,-3,-1,-2
16:25:18.669652,-7,-4,-2,-3,-5,-4,-6,-9
16:25:18.677652,0,-1,0,0,2,2,-1,2
16:25:18.699633,2,-1,-1,-2,-4,0,4,2
16:25:18.699633,1,0,0,1,0,0,1,-2
16:25:18.706627,3,1,4,5,0,2,-6,2
16:25:18.714623,-1,-3,-4,-4,-2,1,0,-1
16:25:18.729614,1,2,2,-1,2,-3,0,7
16:25:18.737609,-1,-2,-4,2,2,12,1,3
16:25:18.751603,-2,0,-3,-1,-1,-3,-3,-4
16:25:18.752599,-1,-1,3,1,-1,-3,3,0
16:25:18.767591,-2,-1,0,-1,-2,-2,0,15
16:25:18.774587,1,-1,0,-2,-2,0,0,-4
16:25:18.789576,-1,1,2,-2,2,-3,9,-3
16:25:18.797573,0,2,-1,-1,0,-2,-7,0
16:25:18.812563,1,-3,-2,-2,2,-2,-2,-3
16:25:18.812563,-3,-1,-3,1,-1,-4,3,9
16:25:18.827554,-5,-2,-1,0,-2,2,-2,-3
16:25:18.834549,-1,0,-1,-2,-2,4,3,2
16:25:18.849540,-5,-3,-1,0,-5,-2,-4,-4
16:25:18.857536,-6,-4,-1,-1,-2,-3,-4,1
16:25:18.872526,1,-3,-1,-3,-2,0,-1,-2
16:25:18.872526,-1,-1,0,-5,2,-1,1,1
16:25:18.887519,-5,-1,-4,-1,-2,-5,0,-1
16:25:18.902508,-4,-2,-3,-3,-3,-1,-1,-1
16:25:18.909503,-1,0,0,2,-3,-4,-4,-5
16:25:18.917498,-4,-2,2,0,0,2,-1,0
16:25:18.939485,-3,-2,1,-4,-4,-4,-3,-6
16:25:18.940485,-2,-2,2,-1,-1,-9,-15,-2
16:25:18.947480,-1,0,-4,-3,-1,-3,0,0
16:25:18.954480,-4,0,0,-3,4,-3,0,1
16:25:18.970467,0,0,0,1,4,9,2,0
16:25:18.977462,-2,-3,-3,0,-1,0,-3,2
16:25:18.991453,-1,-1,0,1,-6,0,-1,-1
16:25:18.992453,-4,-3,-2,-2,-3,-1,0,-2
16:25:19.007442,-4,-3,-1,-3,-5,-2,-3,-6
16:25:19.014440,0,-1,-2,-3,1,2,5,2
16:25:19.029429,2,0,2,1,0,0,0,3
16:25:19.037425,-1,1,-1,-1,-3,-4,2,0
16:25:19.052416,-3,-1,-1,-1,2,2,1,-4
16:25:19.052416,0,1,0,1,5,1,13,2
16:25:19.067406,-2,0,-2,0,-4,-10,-9,-1
16:25:19.075401,0,1,-1,-1,-1,4,4,3
16:25:19.089392,5,5,-1,2,1,4,3,12
16:25:19.097387,-2,-4,0,-1,2,0,-1,-2
16:25:19.112379,-3,-2,-3,-3,0,2,2,-1
16:25:19.113378,2,-1,0,0,0,1,-2,1
16:25:19.127370,5,-1,-1,-1,-1,-3,14,2
16:25:19.135365,-2,0,4,4,4,4,-1,2
16:25:19.157352,-1,-5,-2,-1,-2,-1,-2,-4
16:25:19.157352,1,-2,2,1,1,-1,4,6
16:25:19.172342,2,-3,0,-3,0,-7,-15,-2
16:25:19.172342,2,-1,0,0,-1,-6,16,-1
16:25:19.187333,-1,-1,1,-1,-3,-1,-7,-4
16:25:19.194327,1,-2,-1,-2,-2,1,6,8
16:25:19.209319,-3,0,2,3,-2,3,1,-1
16:25:19.217314,-1,0,-1,-3,-4,-1,-3,-4
16:25:19.232305,1,0,-3,-2,1,1,6,2
16:25:19.232305,-3,1,-3,1,-3,0,9,2
16:25:19.248296,0,-2,1,-1,0,0,-4,-6
16:25:19.255290,0,-1,-2,0,1,9,7,7
16:25:19.270282,-5,-5,-3,-3,-4,-2,2,-5
16:25:19.277277,-2,-3,0,0,3,-1,5,-3
16:25:19.292268,2,3,0,-2,3,9,10,9
16:25:19.292268,1,2,3,2,1,-2,1,0
16:25:19.315253,-3,-1,-1,-3,-1,0,-1,0
16:25:19.315253,3,1,0,-1,1,-1,-1,0
16:25:19.330244,0,-3,0,-1,-1,1,-5,3
16:25:19.337240,1,0,2,-1,2,-1,1,-2
16:25:19.352231,-4,-2,1,0,-2,3,3,-3
16:25:19.353229,-2,0,0,0,4,0,0,-4
16:25:19.367221,-2,-2,-1,-3,0,-1,2,2
16:25:19.374217,-5,-1,-1,-1,1,3,-1,-6
16:25:19.389209,0,0,0,3,2,-1,6,4
16:25:19.397203,-1,0,2,-1,0,0,-2,-5
16:25:19.427185,-5,-1,1,1,-2,-4,-2,-1
16:25:19.428184,0,1,-2,-2,0,-3,-2,-2
16:25:19.428184,-3,-3,-2,-2,-2,-2,-1,-4
16:25:19.435182,-1,0,-1,0,3,1,0,-1
16:25:19.450170,-1,0,-1,1,3,1,-1,2
16:25:19.457167,0,-1,-2,-2,-2,-1,-8,-1
16:25:19.472156,-1,3,-3,-5,-6,-7,-2,-4
16:25:19.479154,0,0,1,-1,1,4,6,2
16:25:19.494144,-4,-2,0,-1,-1,-1,-11,-8
16:25:19.495142,2,0,0,1,-2,-2,2,-1
16:25:19.525124,0,-2,-2,0,-3,2,-9,1
16:25:19.525124,-1,-3,0,-3,-1,0,-2,-7
16:25:19.532120,-2,-5,-2,-2,-3,-4,-2,-2
16:25:19.540116,-1,-6,-2,-2,1,12,14,-3
16:25:19.555106,-2,0,1,1,-1,-2,-11,3
16:25:19.555106,1,1,0,-4,2,4,10,5
16:25:19.570098,-1,-2,-1,0,3,-2,-2,-2
16:25:19.577092,-1,0,0,0,-1,0,6,11
16:25:19.592082,-2,-3,-4,1,-3,-4,-5,-2
16:25:19.600080,-1,-1,0,-2,-7,0,1,-4
16:25:19.614069,-3,-1,-3,-4,0,-1,5,-1
16:25:19.616069,1,1,2,0,0,2,-9,-4
16:25:19.630060,0,-1,-1,-1,-3,0,2,-3
16:25:19.637055,-3,-4,-2,-2,-5,-2,-4,-5
16:25:19.652048,1,-3,-1,-1,0,-3,1,-3
16:25:19.660041,-2,1,0,-1,0,3,2,0
16:25:19.682027,2,1,-2,1,-2,0,-1,-4
16:25:19.683028,1,-1,1,-1,1,0,-2,-4
16:25:19.690022,-2,-2,-1,-2,-4,-3,0,-1
16:25:19.697018,0,2,-1,-2,2,1,-2,0
16:25:19.712010,0,1,-3,-2,-3,2,1,0
16:25:19.720004,-2,2,0,1,1,-4,-6,-3
16:25:19.734996,-1,-2,-2,3,-1,-9,-15,-3
16:25:19.734996,2,0,4,-1,2,0,4,0
16:25:19.749987,-3,0,-3,-3,-4,-4,2,0
16:25:19.756981,0,0,-1,0,-1,6,10,5
16:25:19.771971,3,1,0,0,2,6,4,2
16:25:19.779967,2,-2,-1,-1,5,1,3,-1
16:25:19.793959,-3,0,1,-1,-4,-4,-1,0
16:25:19.794958,-1,-2,-1,3,2,1,-6,-2
16:25:19.809949,1,-1,0,0,-2,-3,5,3
16:25:19.816945,1,0,0,-1,3,1,-5,0
16:25:19.831936,-1,-1,3,1,-1,-4,-2,-4
16:25:19.839931,1,-1,-2,-1,1,-2,-1,-3
16:25:19.854921,-3,1,1,-2,-2,-6,-2,-2
16:25:19.854921,2,0,-1,-6,1,1,-2,-3
16:25:19.876907,-3,-2,-3,-1,1,0,-1,-2
16:25:19.877906,0,0,2,0,-2,0,-2,-1
16:25:19.899894,-2,0,-2,-1,1,-2,-3,0
16:25:19.899894,-2,0,-1,0,0,3,0,0
16:25:19.914885,-1,-3,-1,1,-1,-2,-3,-1
16:25:19.914885,0,0,0,0,-1,-3,-5,-1
16:25:19.929875,4,1,-2,-2,2,3,-4,-3
16:25:19.937870,3,3,2,5,2,1,11,5
16:25:19.959874,-2,-1,-2,-2,-6,-5,-6,-5
16:25:19.959874,-2,0,-2,0,0,-2,1,-1
16:25:19.974846,0,-1,0,-1,-3,-5,-2,-2
16:25:19.974846,-1,2,0,0,1,-2,-1,-1
16:25:19.989838,1,-2,3,-3,1,1,-2,0
16:25:19.997833,-1,-1,0,-1,2,-1,8,1
16:25:20.011824,-2,-1,2,0,0,-3,-8,-2
16:25:20.019821,-1,1,2,-1,-1,1,1,2
16:25:20.041806,-3,-4,-4,-5,-8,-3,-4,-6
16:25:20.042805,1,1,1,-1,0,2,3,2
16:25:20.049801,-1,-2,-3,1,-2,3,6,0
16:25:20.056797,4,1,0,3,3,10,6,1
16:25:20.079783,-1,-4,0,-1,-2,-3,0,-2
16:25:20.079783,0,1,0,0,0,1,-7,-1
16:25:20.094774,-1,2,-2,2,-1,-4,-2,3
16:25:20.094774,6,-1,2,1,2,5,1,4
16:25:20.109765,1,-4,-2,2,-2,-3,-2,-2
16:25:20.117761,-1,0,-3,-1,-1,-8,-18,-4
16:25:20.132752,-2,0,-1,2,2,-1,-3,-1
16:25:20.139745,1,1,-1,-1,0,6,1,1
16:25:20.154743,-7,0,-1,-2,-4,-6,-13,0
16:25:20.154743,-2,0,-1,-1,0,-3,2,-2
16:25:20.169728,0,-4,-4,-1,-4,0,-9,-7
16:25:20.176725,-2,-1,-3,1,0,2,-6,-6
16:25:20.192713,3,-3,-1,-1,0,4,0,3
16:25:20.199710,-2,-1,-1,0,-2,-1,0,-4
16:25:20.215700,-1,2,-1,-1,0,-1,-2,-3
16:25:20.215700,0,0,-1,2,-1,-1,-1,-4
16:25:20.229700,0,-3,-4,-1,-2,-1,-9,-1
16:25:20.237701,0,0,-1,-1,-1,1,-3,-1
16:25:20.252687,2,-2,-1,-1,2,0,4,1
16:25:20.267668,-1,1,-2,-4,1,5,-5,-5
16:25:20.274663,-3,-3,-1,-3,1,6,2,-2
16:25:20.275662,-1,-1,-2,1,1,-1,-2,1
16:25:20.289653,-1,2,-3,3,-3,-2,-12,0
16:25:20.297648,-1,-1,0,1,0,-2,-1,-4
16:25:20.312639,-3,-4,-2,0,1,-1,4,3
16:25:20.319636,-3,1,-6,-6,-6,-3,-7,-4
16:25:20.335625,0,-4,-1,-1,-1,0,18,4
16:25:20.335625,-1,-1,0,1,1,2,-3,0
16:25:20.349616,-3,-1,-3,1,-4,1,5,-5
16:25:20.357612,3,2,4,3,8,5,-2,0
16:25:20.379599,-3,1,1,0,0,0,3,-1
16:25:20.380598,-1,-2,2,-1,3,4,2,-3
16:25:20.402583,-3,2,1,0,0,-1,0,-1
16:25:20.402583,0,-1,-1,-2,2,-7,-7,-4
16:25:20.409579,2,-2,2,1,2,-4,-1,1
16:25:20.417575,1,2,0,-1,-4,-2,-1,0
16:25:20.432575,-1,-3,0,-1,-3,-3,-2,0
16:25:20.439570,0,0,-2,-4,1,0,1,-1
16:25:20.454561,-6,-5,0,4,1,-1,-2,-2
16:25:20.469542,0,0,-1,-2,0,1,0,-2
16:25:20.477537,0,1,-1,1,-3,-3,0,-1
16:25:20.477537,0,-1,1,-1,1,3,1,-1
16:25:20.492529,1,2,-2,0,1,5,15,-3
16:25:20.499525,-2,0,1,0,-3,-1,3,4
16:25:20.514515,2,1,2,0,-4,-4,-3,-1
16:25:20.522509,-2,1,1,-2,4,7,4,-3
16:25:20.537501,4,-3,0,2,1,1,-6,2
16:25:20.537501,-1,1,-1,-1,3,-1,1,-8
16:25:20.552493,-4,-3,1,-1,-4,-2,0,0
16:25:20.559487,-4,-2,-1,-3,0,-2,-3,-1
16:25:20.574478,1,1,1,-1,2,9,20,4
16:25:20.582473,-1,1,-2,1,-2,-1,-5,-4
16:25:20.597465,0,-1,2,-2,0,2,-4,-2
16:25:20.597465,0,1,1,2,-3,0,5,4
16:25:20.612454,-3,-3,-2,-3,-3,-5,-5,-3
16:25:20.619450,4,7,3,2,2,2,0,1
16:25:20.634442,1,1,-3,-3,-2,-5,-1,-2
16:25:20.642438,2,0,1,2,3,0,2,2
16:25:20.657427,-1,-1,1,0,0,6,1,4
16:25:20.657427,0,-5,-3,0,1,2,-4,-5
16:25:20.679413,-3,0,1,0,-1,0,-7,-7
16:25:20.680414,-1,-3,-1,-1,0,-6,-29,-1
16:25:20.694404,-2,-2,0,0,-2,-5,4,0
16:25:20.702400,-2,-1,0,-3,-4,-2,-2,-5
16:25:20.717390,-5,-1,0,-1,-5,-5,-1,2
16:25:20.717390,-1,-3,-1,1,-2,0,-3,-3
16:25:20.732381,4,-1,-2,-1,1,1,-1,2
16:25:20.739379,-1,1,-1,-3,-3,0,-4,-4
16:25:20.754368,-2,1,-2,2,-1,-7,-3,-6
16:25:20.762363,-2,-3,-6,-6,-4,-4,-6,-3
16:25:20.777353,-1,2,-1,-4,1,0,-3,2
16:25:20.777353,-2,0,-3,-2,-1,-4,2,-1
16:25:20.792345,-4,2,3,0,-1,-1,-10,0
16:25:20.799340,1,1,2,1,-5,-6,0,0
16:25:20.814332,-2,0,2,1,-2,0,-1,-1
16:25:20.822327,-1,-1,-2,-1,0,-1,-3,-4
16:25:20.844313,0,-1,-1,1,-2,-2,-7,-4
16:25:20.845311,-1,-2,-2,-1,1,-2,-2,-1
16:25:20.852308,-1,-2,-1,-1,2,3,-3,2
16:25:20.859303,1,1,-1,0,-4,-1,-1,-5
16:25:20.874293,1,1,0,-1,0,1,2,4
16:25:20.882289,-3,-2,-2,3,-1,-4,-2,1
16:25:20.904288,-2,-1,-3,-2,-4,-1,3,2
16:25:20.905274,2,-3,1,1,5,3,-2,1
16:25:20.912271,2,-1,-2,0,-3,-2,-2,0
16:25:20.919267,-3,-3,1,-2,-3,1,0,-2
16:25:20.934256,1,0,-3,-1,0,-1,0,-4
16:25:20.942251,1,-2,-1,-2,-2,-1,9,3
16:25:20.957242,0,0,1,-2,-3,2,1,0
16:25:20.957242,-2,-4,-2,-3,-5,-3,0,-4
16:25:20.972234,-6,-3,-4,-3,-2,-2,-1,-1
16:25:20.979229,-2,1,-3,-3,-4,0,-2,-3
16:25:20.994219,2,0,-1,2,-1,-1,3,4
16:25:21.002216,0,1,-2,-1,0,0,2,2
16:25:21.017207,-2,-1,-3,-2,0,-5,-1,-1
16:25:21.018205,1,1,-1,3,0,-5,-12,0
16:25:21.032196,1,-2,0,0,2,4,0,-2
16:25:21.040192,-2,0,-2,1,-1,-4,-14,0
16:25:21.062179,-2,1,-1,0,-1,2,3,2
16:25:21.063179,1,-1,1,-3,-2,1,0,1
16:25:21.077169,1,1,0,2,3,4,1,-1
16:25:21.077169,-2,-2,-2,-3,-6,-1,-3,-6
16:25:21.099157,-1,-3,1,-1,-2,1,11,6
16:25:21.100155,-2,-3,-3,-4,-7,-7,-15,-5
16:25:21.116146,1,-1,-1,0,4,8,4,3
16:25:21.130147,3,2,0,0,-1,-6,-1,0
16:25:21.137133,1,0,2,1,0,-1,5,4
16:25:21.137133,-1,4,0,2,3,5,4,-3
16:25:21.152130,1,0,0,1,0,1,8,-4
16:25:21.167113,2,0,-2,-2,0,1,-5,3
16:25:21.174109,-2,-2,-4,-4,-2,-2,0,-4
16:25:21.183103,-3,0,0,2,1,2,1,-3
16:25:21.197094,1,-2,2,-2,-3,-4,-9,1
16:25:21.198094,-2,0,-1,1,1,-3,7,2
16:25:21.220089,-3,-1,-1,-4,-3,-4,7,-1
16:25:21.221080,0,0,-1,-1,5,1,-4,6
16:25:21.235071,-2,-2,-2,-1,-1,-2,2,1
16:25:21.242067,-2,2,-2,0,3,-1,-1,-1
16:25:21.257059,-1,1,-1,-4,0,1,2,1
16:25:21.258057,-4,-1,0,-3,-3,-3,-2,0
16:25:21.272058,2,1,-1,1,5,-2,2,1
16:25:21.280043,1,6,1,3,2,1,1,3
16:25:21.295034,-2,-2,-2,-1,-4,-2,-3,0
16:25:21.302030,-1,1,-2,-3,-2,-1,-5,-4
16:25:21.317021,-2,-1,-2,-2,0,-3,-8,-3
16:25:21.318020,0,-1,0,-5,-3,-1,2,-1
16:25:21.332013,3,-1,-3,-2,-4,-4,1,-1
16:25:21.340007,-3,-1,-1,-2,0,-1,-1,-3
16:25:21.354998,-3,-1,-1,-2,-2,0,-1,-2
16:25:21.369989,-3,-3,-1,1,2,1,1,0
16:25:21.376985,0,-1,1,-3,2,-1,-2,-1
16:25:21.384980,-3,-1,-2,-4,-2,0,1,1
16:25:21.399970,-2,-2,0,1,0,-3,-12,-4
16:25:21.399970,2,1,-3,-3,-5,-1,6,8
16:25:21.414961,-1,-3,1,-1,-2,1,-10,-3
16:25:21.421955,-6,-3,0,-3,-3,0,8,-2
16:25:21.436947,0,2,0,0,0,2,1,-1
16:25:21.444950,-2,-2,-2,-3,-1,-2,4,-1
16:25:21.459933,-2,0,1,-1,-1,-2,-3,-3
16:25:21.459933,-4,0,1,-2,1,5,2,2
16:25:21.474923,-2,-2,0,1,-1,2,-1,-3
16:25:21.481920,0,0,-3,-2,-3,-5,3,1
16:25:21.496911,1,-2,-1,-1,-1,-8,-6,4
16:25:21.504906,1,-4,0,0,-2,5,8,8
16:25:21.519895,1,3,1,3,3,2,0,1
16:25:21.519895,-1,-1,0,-3,-1,0,1,-1
16:25:21.534888,1,2,-2,-2,1,1,-6,-1
16:25:21.542882,0,-3,0,1,4,0,0,1
16:25:21.556872,1,0,-2,-1,-1,2,1,-1
16:25:21.564868,2,-1,2,0,0,6,-3,-3
16:25:21.579859,0,3,1,-1,0,0,-3,-2
16:25:21.579859,-5,-3,1,0,-3,0,-3,-3
16:25:21.594850,-2,-3,-1,0,-4,-2,-3,-3
16:25:21.601845,-1,-4,-1,1,4,-4,0,4
16:25:21.616836,0,-3,-1,0,-3,-3,-2,-4
16:25:21.624833,-2,-5,-1,-1,0,0,3,-2
16:25:21.639822,0,1,-1,1,0,2,2,2
16:25:21.639822,-1,0,-1,-1,-2,2,-1,0
16:25:21.654814,-1,-4,-1,-4,-3,-1,-5,-3
16:25:21.661809,-1,-2,-1,-2,-5,3,-3,0
16:25:21.676805,1,-1,2,-1,0,-3,-2,-4
16:25:21.684795,-4,-1,-4,-4,-6,-1,2,-3
16:25:21.699787,-2,-3,0,-4,-1,1,2,0
16:25:21.699787,-1,0,0,0,2,2,2,2
16:25:21.714776,-4,-1,-1,1,7,3,13,9
16:25:21.721773,-2,-2,-2,-2,-5,-12,-15,-2
16:25:21.736771,-3,3,0,-1,-1,-1,0,-1
16:25:21.744757,0,-1,-2,1,0,1,7,5
16:25:21.759748,-3,0,-3,0,-1,-4,0,0
16:25:21.759748,-2,-1,-2,1,0,-2,-11,2
16:25:21.774739,-1,-4,0,-1,-3,-4,-4,-3
16:25:21.781736,-1,-3,-1,1,2,1,16,4
16:25:21.796727,-1,-1,-6,-2,-3,-1,-5,0
16:25:21.804721,-1,-2,0,0,0,-2,3,1
16:25:21.819713,-1,-2,-1,-1,0,-1,1,-1
16:25:21.819713,0,-1,-1,-2,-1,3,1,1
16:25:21.834702,2,1,1,1,2,1,2,-1
16:25:21.841698,-2,-1,-1,-1,-2,-2,1,2
16:25:21.856689,0,3,-2,-2,1,-1,-2,-1
16:25:21.865686,-1,-4,-2,-4,-1,-3,-5,-2
16:25:21.879674,-2,-2,-2,-1,2,-2,-1,1
16:25:21.880674,-2,-3,1,-2,0,0,0,1
16:25:21.901662,-2,-2,-1,0,0,4,16,-3
16:25:21.902660,4,4,2,2,2,4,0,2
16:25:21.917651,-2,-2,-3,0,1,1,3,-2
16:25:21.924647,-2,-1,-2,0,-1,-3,1,1
16:25:21.939639,0,-1,0,-1,-1,-3,-3,-1
16:25:21.939639,-1,0,-2,0,0,1,3,0
16:25:21.954628,-3,0,1,-1,-2,0,-2,-1
16:25:21.961625,1,-1,-1,0,1,-1,1,2
16:25:21.984611,1,1,-1,0,-1,-3,0,0
16:25:21.985609,-1,-1,-2,0,1,0,0,-3
16:25:22.006596,0,3,2,-1,-2,-3,-4,3
16:25:22.007597,-2,-1,-2,-1,2,2,4,4
16:25:22.014592,-1,-2,-1,-4,-6,-2,1,-2
16:25:22.022587,-1,-2,-2,-3,1,0,-1,1
16:25:22.037578,3,3,0,0,1,-2,0,4
16:25:22.044572,-1,0,-2,1,0,2,2,0
16:25:22.059565,-1,-1,-1,-2,1,-2,0,0
16:25:22.060563,-1,-1,0,0,-1,1,-1,0
16:25:22.074555,0,-1,-2,-2,-1,-3,-1,-1
16:25:22.082550,0,-2,0,-3,0,2,-4,-3
16:25:22.097545,0,-1,-1,-1,-2,0,0,-2
16:25:22.104537,-3,-1,1,0,-1,-4,0,-2
16:25:22.119527,-3,0,0,-1,3,6,-6,-3
16:25:22.120528,-4,-2,0,-1,-6,-3,1,-4
16:25:22.134517,-1,0,1,2,-4,-3,4,3
16:25:22.142513,-2,-2,0,-4,-2,-3,-4,-1
16:25:22.157504,-2,0,0,3,-1,1,-3,-4
16:25:22.172494,-2,-1,0,0,-2,-6,5,3
16:25:22.179490,0,-2,-3,0,-1,-5,-1,-3
16:25:22.180489,1,0,0,-5,-4,-1,-1,-2
16:25:22.194481,-2,1,0,-3,-2,-1,8,-1
16:25:22.202475,1,-2,0,2,0,-1,0,2
16:25:22.217467,-4,-2,-2,-1,-3,-3,-4,-4
16:25:22.224462,1,-2,0,-1,0,0,-2,-1
16:25:22.239454,-1,1,0,0,-3,-4,-10,0
16:25:22.240452,1,2,0,2,1,1,-5,1
16:25:22.254446,-3,-1,-3,0,2,3,0,2
16:25:22.262438,-4,-3,-1,-1,-2,-1,0,1
16:25:22.277430,-1,0,-1,2,-2,3,-2,-1
16:25:22.292421,-3,-1,0,-3,1,0,-3,-4
16:25:22.299419,1,-1,-2,-1,-2,-2,1,-2
16:25:22.307413,-1,-2,-3,-3,2,8,3,4
16:25:22.314407,-4,-2,-3,-4,0,0,3,-3
16:25:22.322403,-2,-3,-1,0,0,0,-3,1
16:25:22.337393,-3,-1,1,0,1,0,1,2
16:25:22.344390,-5,1,-3,1,-3,-2,3,-2
16:25:22.359379,-3,-4,-1,-5,0,-4,-11,-1
16:25:22.375369,-3,-1,-1,-3,-2,-1,6,5
16:25:22.382365,-2,1,1,2,3,-3,-1,-3
16:25:22.382365,-4,-3,-3,-2,-4,0,-14,-5
16:25:22.397358,-2,-5,0,-1,1,1,1,1
16:25:22.404352,-1,-2,-5,0,2,4,4,2
16:25:22.419343,-1,-1,0,2,1,-1,4,0
16:25:22.427338,-1,-1,-1,0,-4,-2,2,3
16:25:22.442330,-3,0,0,-4,-1,0,0,-2
16:25:22.442330,-4,-3,0,-2,0,-2,1,1
16:25:22.457321,-2,4,3,1,2,2,0,0
16:25:22.465315,1,-4,-3,-2,-1,5,-1,-1
16:25:22.479308,-6,0,-2,-3,-2,-1,-1,-1
16:25:22.487302,-1,-2,-2,-2,1,-4,-10,3
16:25:22.502290,4,1,1,-2,0,-4,6,8
16:25:22.503292,-4,-3,-3,-1,0,-4,-4,-1
16:25:22.517283,-2,0,0,1,3,0,-6,2
16:25:22.525278,1,2,-4,-2,-2,-2,-2,-2
16:25:22.547264,1,-1,-3,-1,-2,-6,1,-3
16:25:22.548263,-2,-2,-5,0,-2,-3,2,-3
16:25:22.562255,-1,-1,0,0,-5,-3,-3,2
16:25:22.563254,-3,-3,-1,-1,-1,0,-3,-1
16:25:22.577246,-1,-3,-2,-2,-2,-7,-8,1
16:25:22.585240,-1,-3,-1,-2,0,0,-1,-3
16:25:22.600231,1,2,-1,0,3,5,7,1
16:25:22.607227,0,-3,-3,1,3,1,3,-2
16:25:22.622218,-7,-1,-3,-3,-1,-2,-9,-6
16:25:22.623217,-4,0,0,2,-3,1,0,1
16:25:22.637208,-3,-1,-2,-3,-1,0,-1,2
16:25:22.652199,-3,0,-2,-3,-2,-4,0,-2
16:25:22.659198,-1,-4,1,-3,0,-1,-3,-3
16:25:22.667189,-1,1,0,-1,-1,1,3,1
16:25:22.682181,-2,-1,-4,0,0,-2,-2,0
16:25:22.683184,0,0,-1,-3,0,0,0,-1
16:25:22.704173,-4,-3,-1,-1,-3,2,-4,-1
16:25:22.705166,-2,-1,0,-2,-3,-3,0,-3
16:25:22.720157,-2,1,-6,-4,-6,6,2,-2
16:25:22.735149,0,-2,0,0,2,-3,3,0
16:25:22.742144,-3,0,-4,-1,0,-3,4,1
16:25:22.743143,-3,-3,0,-4,-3,0,10,-1
16:25:22.757134,-1,-1,-1,1,-3,0,-3,-1
16:25:22.765129,-1,-1,-3,0,-2,-1,4,1
16:25:22.787115,-2,-3,-1,1,-1,-3,-1,-2
16:25:22.788115,-2,-1,-3,-4,-3,-5,-4,-4
16:25:22.802109,-2,0,0,0,3,1,0,-3
16:25:22.803106,-3,0,-2,-2,-1,-2,1,1
16:25:22.825092,-1,3,-1,-3,-1,-3,-1,-4
16:25:22.825092,-1,-1,-3,-1,-1,1,2,-1
16:25:22.840084,-2,-2,-3,1,3,3,-1,-2
16:25:22.847095,-3,0,-1,-1,0,0,4,1
16:25:22.862070,-6,-2,-2,-4,-1,-1,2,-1
16:25:22.863069,0,0,1,-2,1,-3,-1,1
16:25:22.885055,0,0,-2,0,-3,-4,-3,-2
16:25:22.885055,3,1,1,0,1,-2,-15,-4
16:25:22.900047,2,-3,-1,0,-1,-3,3,1
16:25:22.907042,-3,1,0,0,-1,-1,0,2
16:25:22.922033,-1,-1,-1,-2,-1,1,-1,-3
16:25:22.923033,-1,0,-1,-3,0,1,-1,-2
16:25:22.938025,-1,2,-1,-3,-1,-1,-1,2
16:25:22.945022,1,-1,-1,-3,-6,-4,0,-2
16:25:22.967006,0,0,0,-4,-1,-5,0,-1
16:25:22.968006,0,-1,-2,-3,-2,2,1,0
16:25:22.982996,-3,-2,-3,-1,-1,-1,-2,-6
16:25:22.983999,1,0,3,-1,-3,-3,-3,-1
16:25:23.004982,0,-3,2,-1,1,-3,-4,-3
16:25:23.005982,-1,-2,0,0,2,2,-1,1
16:25:23.019973,-1,-1,1,2,0,-1,-2,-1
16:25:23.027970,0,-2,-2,0,0,0,0,1
16:25:23.041960,-1,-1,-2,-2,-2,-2,-3,-2
16:25:23.042959,-2,0,-1,-2,-3,-4,1,-1
16:25:23.057953,-1,0,-2,0,-4,-10,-14,-1
16:25:23.064948,-3,-2,-4,-2,0,-3,6,4
16:25:23.079939,-2,-2,-2,-4,-4,-1,-1,-2
16:25:23.094930,-2,1,0,3,2,3,3,-3
16:25:23.102922,-1,-3,0,-4,-2,-1,0,2
16:25:23.102922,2,-2,-2,0,-1,-2,2,-1
16:25:23.117913,-3,-2,2,2,1,-2,-3,-1
16:25:23.124913,-1,-1,0,-1,1,0,0,3
16:25:23.139902,-1,0,1,-1,-2,-1,1,-2
16:25:23.147896,-2,-3,-4,-3,-3,0,-1,-6
16:25:23.161885,0,-1,-4,0,-4,-1,-1,-3
16:25:23.162888,-1,1,0,1,0,1,3,1
16:25:23.177879,0,-3,-1,0,-4,-3,-3,-1
16:25:23.184873,0,0,-2,-1,0,-1,1,-3
16:25:23.199864,-1,-3,-1,1,-2,1,0,0
16:25:23.207857,-2,-2,0,-2,-2,0,1,0
16:25:23.222848,3,-1,-3,-1,-1,-8,0,5
16:25:23.222848,-2,-1,-3,1,-1,7,5,0
16:25:23.237839,-1,1,-1,1,-2,-1,-10,-3
16:25:23.244836,-1,-1,-4,0,-1,-2,23,9
16:25:23.259826,-1,-2,-2,-2,0,0,-4,-2
16:25:23.266822,-2,-1,0,-1,0,-1,1,2
16:25:23.281813,-2,-3,-2,-2,-3,-5,-2,1
16:25:23.289808,0,-4,2,-1,0,-2,-2,-1
16:25:23.311796,-3,0,-2,-3,-4,-2,2,1
16:25:23.312794,-1,-1,-3,-1,-2,-4,3,4
16:25:23.319788,-4,2,-2,0,-3,4,2,3
16:25:23.326786,-2,-1,-3,0,-3,-3,-2,0
16:25:23.341776,-3,-3,-1,-2,0,-1,0,-1
16:25:23.349770,0,1,-2,-1,1,-3,2,3
