timestamp,emg1,emg2,emg3,emg4,emg5,emg6,emg7,emg8
16:20:10.877121,-3,-2,-1,5,3,-1,0,-1
16:20:10.882119,9,1,1,-2,-1,-6,6,20
16:20:10.890113,6,2,0,-2,-2,1,2,7
16:20:10.897109,-3,-1,-2,-3,2,1,0,-5
16:20:10.912100,-3,5,3,4,6,2,-5,-14
16:20:10.920095,0,-3,-1,0,-1,1,4,3
16:20:10.935087,2,1,2,2,-1,0,-3,-2
16:20:10.942081,-2,-3,-1,0,4,4,-3,-7
16:20:10.950077,-1,-2,-1,-3,-7,-3,-6,0
16:20:10.957072,-7,1,-3,0,1,3,-4,-4
16:20:10.980057,-7,-5,-4,-5,-5,-8,-10,-10
16:20:10.980057,-6,-1,-1,1,-1,-3,-6,-16
16:20:10.995050,-8,-4,-7,-4,-4,-8,-10,-11
16:20:11.002044,-1,2,1,0,-1,-2,0,0
16:20:11.010039,0,-5,-1,-3,-4,-5,-2,1
16:20:11.025031,-1,-4,1,1,-1,-2,-3,-8
16:20:11.032026,7,-8,-8,-7,-1,5,-1,4
16:20:11.040022,-4,-4,-4,-3,-5,-7,-8,-8
16:20:11.055012,-2,2,3,1,1,0,-4,-16
16:20:11.062014,-8,-7,-6,-5,-5,-12,-14,-6
16:20:11.070006,-1,0,0,-1,0,-1,-3,-2
16:20:11.084995,-2,-1,-1,2,-1,1,-2,1
16:20:11.092030,-1,-2,-1,0,-1,-2,1,1
16:20:11.099984,-1,2,-3,1,-1,0,1,-2
16:20:11.114976,0,-3,-4,-2,-1,-2,-4,-1
16:20:11.121971,-5,-3,-1,-1,0,2,0,1
16:20:11.129966,6,5,3,4,3,4,1,20
16:20:11.144958,-2,-2,1,1,3,3,-5,1
16:20:11.152029,-6,-1,0,-3,-1,-5,-5,-12
16:20:11.159948,-4,0,-1,0,-1,0,-4,-2
16:20:11.181934,-1,-2,2,-1,1,2,0,2
16:20:11.182933,-2,-1,0,0,-2,-2,-1,0
16:20:11.189930,0,1,0,1,0,3,-1,-7
16:20:11.204920,-1,1,-1,3,-2,-7,-6,-13
16:20:11.211917,-5,-7,-6,-4,-3,-4,-7,-11
16:20:11.219911,-3,-1,-2,-3,-5,-8,-9,-3
16:20:11.234903,12,2,-2,0,1,-6,-4,5
16:20:11.241900,-5,-8,-3,-4,-4,-7,-6,-6
16:20:11.249892,0,-1,1,0,0,0,1,-1
16:20:11.271879,-2,0,-3,-2,-4,-3,-1,-5
16:20:11.272879,2,1,-4,-1,1,3,-1,3
16:20:11.279875,-5,0,1,-1,-2,-5,-4,-4
16:20:11.301893,3,-1,-1,-3,-2,-4,-1,5
16:20:11.302861,5,2,0,0,-4,-1,-5,-6
16:20:11.309855,-5,-1,0,-1,-5,-11,-10,-8
16:20:11.324845,1,3,0,0,3,1,-1,1
16:20:11.331864,-3,-1,3,0,2,1,-3,0
16:20:11.339837,3,1,-1,-2,-3,-1,-1,4
16:20:11.354828,-6,-1,-1,-1,-4,-2,-5,-6
16:20:11.361824,-3,-1,-4,-5,-6,-8,-9,-6
16:20:11.369818,-7,-4,-3,-4,1,8,4,-2
16:20:11.384810,1,2,0,2,3,6,2,0
16:20:11.407796,-11,-8,-7,-8,-5,0,-3,-15
16:20:11.414794,5,0,0,-5,-7,-8,-4,2
16:20:11.415790,-7,1,1,0,-1,1,-3,-2
16:20:11.422789,0,-1,-2,-2,1,2,2,1
16:20:11.429785,-13,-2,0,2,-2,-3,-1,-2
16:20:11.444773,-10,-4,-6,-5,-6,-3,-9,-14
16:20:11.452771,-5,-4,-5,-4,-5,-9,-12,-10
16:20:11.467758,-5,0,0,0,-2,-2,-2,-4
16:20:11.474756,0,4,1,2,4,1,-2,0
16:20:11.489748,3,1,-1,-1,-2,5,6,5
16:20:11.490744,-6,-4,-8,-4,-1,3,0,-4
16:20:11.512731,-3,-3,-1,0,0,-1,-4,-10
16:20:11.512731,-3,0,0,-1,2,-3,-2,0
16:20:11.527721,9,1,-2,1,-1,2,2,14
16:20:11.534717,1,2,1,-4,-1,-10,7,5
16:20:11.542715,2,4,2,1,1,0,-3,6
16:20:11.549708,1,-1,0,0,2,0,1,-3
16:20:11.564700,-3,-4,-1,1,1,0,-2,-5
16:20:11.572697,3,-2,-2,-3,0,-4,-5,-1
16:20:11.587685,-7,-1,-4,-2,0,-3,-5,-2
16:20:11.594680,6,4,0,1,1,1,11,19
16:20:11.602678,5,2,-2,-1,-1,3,5,8
16:20:11.609671,-23,-9,-3,-4,-8,-12,3,0
16:20:11.624662,-3,1,2,1,-6,-2,-1,-4
16:20:11.632659,0,-2,1,-2,0,2,0,-2
16:20:11.647648,-4,2,0,-1,3,2,-2,-3
16:20:11.654644,-3,-3,-1,-1,0,-1,-1,-1
16:20:11.662642,-1,1,-1,0,0,-1,1,-1
16:20:11.677632,-3,0,2,2,3,-1,-7,-5
16:20:11.685624,0,0,1,3,-2,2,3,5
16:20:11.692620,2,0,-5,-4,-1,0,-7,12
16:20:11.707614,-1,3,5,0,1,1,2,-6
16:20:11.714606,-4,0,-1,-4,-2,-3,-4,-8
16:20:11.722605,3,-2,-1,0,2,-2,-1,-2
16:20:11.737595,-3,-5,-2,-1,-2,0,-4,-3
16:20:11.745590,-5,0,-2,0,0,1,-2,-1
16:20:11.752587,12,6,1,3,3,0,4,12
16:20:11.759582,7,4,2,3,1,8,4,9
16:20:11.775570,0,-1,-1,0,-1,2,-2,0
16:20:11.782568,-1,-2,-2,-2,0,0,2,-5
16:20:11.797559,0,-2,-1,1,0,-5,-2,2
16:20:11.805554,-2,-2,-1,-2,0,1,-1,0
16:20:11.820541,-1,1,-1,-1,-1,-3,-2,-5
16:20:11.820541,-5,-4,0,0,0,3,5,8
16:20:11.835531,9,2,-4,-4,-4,-4,0,8
16:20:11.842530,35,12,7,3,11,16,29,39
16:20:11.857518,-4,1,0,0,-1,-2,-11,-8
16:20:11.864514,3,5,3,6,5,7,12,11
16:20:11.880504,8,2,-2,-1,2,3,0,3
16:20:11.880504,-1,-2,-2,0,-3,0,1,-4
16:20:11.895495,-5,0,-1,-1,2,1,-3,-1
16:20:11.902490,-3,-1,-3,1,-3,-1,0,-1
16:20:11.932471,-2,-1,-5,-2,-4,-1,-6,-6
16:20:11.932471,7,1,-1,-2,1,0,0,3
16:20:11.939467,-4,-7,-7,-7,-8,-14,-15,-15
16:20:11.940467,1,1,3,3,6,4,1,3
16:20:11.954458,3,-4,-1,-2,-2,0,-5,-2
16:20:11.962454,-1,-2,-3,1,0,1,0,0
16:20:11.977444,-9,-2,-1,-3,-2,-1,1,-2
16:20:11.984530,1,0,-2,-1,3,-1,-6,4
16:20:12.014421,1,-2,-2,-3,-5,-15,-4,17
16:20:12.014421,-5,0,0,1,-1,-1,-5,-12
16:20:12.015422,-11,-5,0,2,-2,-4,-1,7
16:20:12.022418,-6,-2,-3,-1,-3,1,2,-9
16:20:12.037409,0,0,2,-2,-3,-1,-1,-3
16:20:12.044411,5,-2,0,-1,-1,0,-1,1
16:20:12.059400,3,-8,-5,-6,-11,-8,-9,3
16:20:12.067388,9,-2,1,-1,2,4,11,12
16:20:12.074390,-3,-6,-6,-2,-8,-7,-9,-6
16:20:12.082381,-5,-4,-5,-5,-3,1,1,-5
16:20:12.097374,-1,-2,-2,-1,2,-1,-1,-3
16:20:12.105366,-7,-2,-2,2,0,4,1,-6
16:20:12.120360,-16,-1,1,-1,-4,-5,-6,-16
16:20:12.127355,-10,-6,-3,-2,-4,-3,-5,-15
16:20:12.142346,15,5,-1,1,3,4,8,9
16:20:12.143347,11,3,5,3,4,3,6,22
16:20:12.157337,-2,-1,-2,0,-1,-2,-1,-1
16:20:12.165332,-2,-2,0,-2,3,4,0,5
16:20:12.180323,-2,-1,-1,1,0,-1,0,2
16:20:12.187318,1,4,-3,0,1,-2,-1,5
16:20:12.202310,-3,-1,-2,0,-4,2,3,-5
16:20:12.203308,0,-1,-1,0,0,-2,-1,0
16:20:12.217297,-2,-6,-1,4,1,-4,-5,-8
16:20:12.225292,-1,0,-2,-2,-2,-4,1,2
16:20:12.240286,-6,5,3,1,4,1,2,0
16:20:12.247282,-2,-1,-1,-2,1,1,0,2
16:20:12.262273,0,-1,-2,1,0,-1,-2,-3
16:20:12.263271,-1,2,1,-1,-1,-4,1,-1
16:20:12.277263,-4,-1,-2,-1,1,0,-4,-9
16:20:12.285258,10,5,3,4,6,12,21,22
16:20:12.300248,19,6,-1,0,2,4,0,4
16:20:12.307243,-1,-2,-2,-1,0,-2,-5,-3
16:20:12.322235,0,1,-1,-1,1,1,-1,-2
16:20:12.323234,-4,-1,-1,1,1,2,-2,-3
16:20:12.337223,-10,-3,0,-6,-5,-15,-11,-11
16:20:12.345221,-2,-3,-8,-10,-1,13,1,-5
16:20:12.360212,-1,-3,-1,-2,2,-2,-6,-2
16:20:12.367205,1,0,-4,-4,-5,-9,-12,-2
16:20:12.382199,0,-1,-1,-2,2,3,4,-1
16:20:12.383195,0,0,1,-2,-2,1,1,-1
16:20:12.397186,-2,-2,1,-1,-1,-3,-5,-9
16:20:12.405185,4,-3,-3,-4,-1,1,2,7
16:20:12.420176,-7,-5,-2,-1,-1,-4,-9,1
16:20:12.427168,-6,-2,-1,-1,-2,0,4,-2
16:20:12.443161,-5,-7,-6,-2,-4,-1,-2,-6
16:20:12.443161,-3,-3,-2,-3,-3,4,-1,-4
16:20:12.457152,5,1,3,0,1,0,3,4
16:20:12.465144,4,0,-3,-6,0,4,1,22
16:20:12.480138,-3,0,-3,-4,-3,-3,-5,-6
16:20:12.488131,-1,1,0,-3,3,-1,3,-2
16:20:12.510117,-8,3,6,4,7,1,6,-17
16:20:12.510117,-7,-2,-3,-2,-1,-2,-5,-3
16:20:12.517112,-7,-5,-5,-7,-4,-5,-9,-4
16:20:12.525111,-1,-3,-1,1,7,4,1,-5
16:20:12.540101,0,0,0,-1,-1,-4,-4,-2
16:20:12.547095,-2,1,-3,0,-1,-2,-1,1
16:20:12.562086,0,-1,-1,0,0,4,-3,-1
16:20:12.563087,-4,-5,-1,-1,0,-7,-10,-5
16:20:12.577076,-9,-10,-9,-8,-7,1,2,-6
16:20:12.585072,-18,0,2,2,4,2,4,12
16:20:12.600064,-2,-1,3,4,3,1,-1,-5
16:20:12.608059,-1,-1,-1,-1,-3,-3,-2,-3
16:20:12.625046,1,-1,-2,1,3,1,-3,0
16:20:12.630046,0,0,-1,1,-7,-4,-3,-2
16:20:12.638041,11,-9,-11,-12,3,9,9,18
16:20:12.645037,5,5,4,3,3,6,7,3
16:20:12.660028,-1,2,-1,1,-2,-1,-2,-3
16:20:12.675018,-5,-3,-3,-1,3,0,-3,0
16:20:12.682011,-1,-2,-1,-1,-2,0,1,-3
16:20:12.683013,-1,-1,1,-1,1,-5,-11,-8
16:20:12.697004,-8,-10,-9,-6,-8,-6,-6,-4
16:20:12.704998,3,6,4,4,7,2,2,2
16:20:12.719993,-4,0,-1,1,-1,-4,-4,-3
16:20:12.726986,-1,-3,-1,-2,0,3,1,-1
16:20:12.742973,5,2,3,2,7,7,9,8
16:20:12.742973,-1,-1,1,-2,3,2,1,1
16:20:12.757966,0,0,1,4,6,-5,-1,-5
16:20:12.764963,17,3,-1,-1,1,2,5,22
16:20:12.779950,7,-3,-1,1,5,-3,-3,1
16:20:12.787948,-4,2,10,28,14,0,2,0
16:20:12.801938,-6,-10,-26,-27,-45,-3,-2,-3
16:20:12.802936,7,21,53,55,33,18,7,6
16:20:12.817928,-13,-35,-94,-40,-15,-25,-4,-4
16:20:12.824926,12,21,50,40,24,28,9,9
16:20:12.839917,4,-5,-19,-128,-29,-18,-5,1
16:20:12.847911,-5,4,4,46,-44,35,6,-1
16:20:12.862900,32,52,6,53,-128,3,19,20
16:20:12.862900,-31,-70,-51,127,82,-14,-17,-20
16:20:12.884889,-4,16,32,94,127,47,9,3
16:20:12.885888,4,12,-60,-128,-128,-73,-14,-3
16:20:12.899878,0,8,26,-50,71,-11,-5,-1
16:20:12.907875,-15,-49,-67,16,127,51,3,-5
16:20:12.922866,17,30,11,32,-128,-38,0,8
16:20:12.929861,-23,-32,-7,108,76,-17,-17,-20
16:20:12.937856,-7,10,62,-58,90,33,5,1
16:20:12.944852,12,16,0,9,-128,29,7,3
16:20:12.959841,8,15,4,-33,-39,-5,-3,3
16:20:12.967837,26,46,122,-8,-96,22,18,19
16:20:12.982827,-43,-76,-69,-43,-128,-66,-29,-30
16:20:12.989822,32,61,63,33,127,105,31,26
16:20:12.997821,-73,-126,-128,-128,-128,-128,-75,-61
16:20:13.004815,37,86,127,127,127,127,43,33
16:20:13.019803,23,-7,-128,-128,-128,-28,15,21
16:20:13.034794,0,8,75,98,73,-4,1,0
16:20:13.042788,12,-3,-116,-128,-128,-57,5,11
16:20:13.049786,-7,-4,5,50,127,8,-5,-8
16:20:13.064778,14,19,26,13,3,24,12,8
16:20:13.065778,8,9,-1,-95,-23,11,6,3
16:20:13.079766,-12,-28,-55,-31,12,-40,-15,-12
16:20:13.094760,3,3,-23,-31,19,2,1,0
16:20:13.102756,17,15,-45,-77,10,19,12,11
16:20:13.109750,-17,-27,-22,21,-11,-15,-13,-12
16:20:13.124741,10,23,28,14,0,15,6,6
16:20:13.125738,-5,-14,-16,-8,-14,-3,-1,-2
16:20:13.139730,-6,-4,-4,-6,-12,-1,-2,-3
16:20:13.147725,2,5,-6,0,-1,3,1,2
16:20:13.162716,-2,-9,-15,14,-2,0,-2,-1
16:20:13.177709,0,2,2,-4,-3,2,1,4
16:20:13.184703,1,11,8,-24,-7,-2,2,0
16:20:13.185704,-29,-52,-60,-40,-25,-28,-14,-16
16:20:13.200692,6,5,6,-23,8,6,2,2
16:20:13.207690,12,21,44,127,83,11,8,12
16:20:13.222678,1,30,39,-2,1,14,3,-2
16:20:13.229674,-15,-16,-27,-59,-38,-21,-10,-8
16:20:13.244667,-38,-84,-71,-44,-30,-18,-10,-13
16:20:13.245666,30,64,70,35,14,3,2,11
16:20:13.260658,-25,-83,-105,-15,-17,-42,-10,-3
16:20:13.267651,-2,4,-10,-19,-23,-14,-7,-5
16:20:13.282641,-6,-26,-26,3,2,-11,-1,7
16:20:13.289640,13,8,15,20,47,-2,-1,4
16:20:13.304627,21,34,22,-2,-26,21,15,17
16:20:13.305629,-36,-103,-128,-51,-41,-23,-9,-11
16:20:13.320621,17,14,-9,46,6,-11,4,11
16:20:13.327617,38,104,113,36,24,19,4,11
16:20:13.342608,-7,-9,-6,-12,-9,-5,-4,-5
16:20:13.349602,-29,-59,-67,-10,15,-11,-5,-6
16:20:13.365592,15,37,43,9,-3,0,2,4
16:20:13.365592,29,71,74,-71,-95,-7,0,5
16:20:13.380584,-29,-62,-56,-23,5,2,-3,-9
16:20:13.387580,15,35,35,-3,22,-11,1,3
16:20:13.402570,-7,-3,-7,-39,-7,-1,0,-2
16:20:13.410563,-33,-62,-46,-1,18,9,-4,-8
16:20:13.432552,4,9,11,21,0,-1,1,1
16:20:13.433548,-9,-10,3,15,-17,-19,-5,-3
16:20:13.440544,8,-8,-28,2,13,3,12,8
16:20:13.447543,-13,-30,-6,10,22,14,5,-1
16:20:13.462534,28,69,67,22,16,7,3,6
16:20:13.470528,-23,-56,-80,-86,-52,-9,-7,-6
16:20:13.485516,-15,-38,-41,3,-1,-1,0,0
16:20:13.485516,19,43,26,23,0,3,6,8
16:20:13.500513,10,19,16,1,0,2,2,3
16:20:13.507506,-15,-34,-34,-33,-13,-9,-3,-5
16:20:13.522493,18,42,47,40,-9,-3,-2,1
16:20:13.530490,0,7,10,0,-13,-2,0,-3
16:20:13.545481,18,44,63,50,27,10,5,5
16:20:13.545481,16,26,30,3,68,2,5,5
16:20:13.560470,8,15,13,6,2,5,2,1
16:20:13.567466,-1,11,12,2,-2,0,-4,-2
16:20:13.582460,-12,-24,-18,0,6,-5,0,-5
16:20:13.590455,3,6,12,1,0,3,-1,2
16:20:13.605442,10,-2,-27,20,47,17,9,10
16:20:13.605442,-1,6,7,-1,-2,-1,-2,0
16:20:13.620436,3,3,7,2,0,0,0,-2
16:20:13.627429,3,14,14,-11,-8,0,-1,0
16:20:13.649415,-33,-68,-70,10,15,-1,-9,-12
16:20:13.650416,3,11,17,-7,-3,0,-1,-1
16:20:13.664408,1,13,17,0,-1,0,-2,-2
16:20:13.665408,-33,-74,-98,-68,-32,-21,-10,-14
16:20:13.680399,13,12,18,6,5,6,4,7
16:20:13.687395,-12,-6,2,0,-2,-7,-6,-14
16:20:13.702386,-1,2,1,2,2,2,3,4
16:20:13.717374,31,9,7,4,4,-1,-5,0
16:20:13.725372,-49,-12,1,2,4,11,8,-27
16:20:13.740363,9,3,-1,2,0,0,2,3
16:20:13.747358,67,25,16,11,11,7,-13,-1
16:20:13.748355,-79,-17,-1,4,8,5,15,-11
16:20:13.762349,81,25,17,14,11,20,53,-79
16:20:13.770341,-26,-3,4,4,2,-14,-57,-33
16:20:13.785335,4,-12,-14,-16,-24,-9,4,37
16:20:13.785335,65,13,4,5,10,31,81,-66
16:20:13.800323,-81,-35,-23,-24,-28,-59,-31,18
16:20:13.807321,-27,0,4,6,-8,-11,-89,-13
16:20:13.822309,33,10,-2,-1,0,14,50,-52
16:20:13.830304,-2,-19,-22,-21,-17,-11,21,-25
16:20:13.845298,-36,2,11,8,9,5,21,14
16:20:13.845298,13,5,-1,-1,0,-18,-46,-15
16:20:13.860289,-2,-5,-1,-1,-3,2,17,-15
16:20:13.867283,-79,-1,5,0,16,14,-64,48
16:20:13.882275,40,8,4,0,3,28,61,16
16:20:13.890270,1,-2,-4,-5,0,-5,8,-5
16:20:13.905261,67,16,2,0,-2,-47,-97,-14
16:20:13.912257,-3,-9,-9,-12,-8,-2,39,47
16:20:13.920248,10,0,-1,1,-3,1,-11,-3
16:20:13.927247,4,19,9,6,10,1,-18,-42
16:20:13.942238,-6,-10,-11,-13,-20,-19,-3,75
16:20:13.957228,10,11,7,8,12,8,7,-1
16:20:13.965224,-5,-4,6,10,22,47,85,14
16:20:13.972218,7,0,-9,-31,-15,-6,9,7
16:20:13.987211,8,4,-2,7,3,36,74,-23
16:20:13.988207,5,2,-2,0,-4,-17,19,12
16:20:14.002200,-5,8,24,7,-2,19,19,-28
16:20:14.010196,-7,-2,-12,17,6,-7,-38,-32
16:20:14.025187,8,-4,1,-20,-1,40,82,55
16:20:14.032182,39,35,-32,-32,6,9,3,-3
16:20:14.047174,-95,-14,-30,12,15,-2,-115,-128
16:20:14.048170,28,29,99,32,41,48,127,127
16:20:14.062161,-24,3,-128,-117,-69,28,41,-67
16:20:14.070160,91,-50,5,-3,-101,12,26,127
16:20:14.085147,-19,52,28,-26,127,43,22,20
16:20:14.092143,-78,-37,-17,-39,-48,-79,-38,-61
16:20:14.107136,127,42,19,10,41,-37,124,59
16:20:14.108133,10,32,28,26,0,83,62,74
16:20:14.122124,92,-28,4,16,36,9,40,-31
16:20:14.130123,127,8,15,16,-30,-21,50,127
16:20:14.145114,-100,21,21,27,12,-39,-63,-111
16:20:14.152107,92,-31,-34,-24,-1,43,79,86
16:20:14.182089,19,10,8,10,8,19,-35,-12
16:20:14.183088,50,-1,7,13,45,59,125,63
16:20:14.184089,-45,-5,-9,-14,-23,-30,-52,-55
16:20:14.190086,20,8,-5,-11,-24,-47,-36,-54
16:20:14.213068,72,11,2,6,23,5,50,110
16:20:14.213068,-15,-12,-23,-18,-7,-67,127,21
16:20:14.235058,-30,-6,-1,3,-8,9,-47,-58
16:20:14.236055,-22,-11,-11,-8,-7,-44,-53,-42
16:20:14.250046,33,-4,0,19,11,13,-10,4
16:20:14.250046,10,1,-4,-44,-11,-16,-31,7
16:20:14.265040,21,15,11,34,43,44,9,28
16:20:14.272032,-56,-8,4,8,-8,-18,-54,-95
16:20:14.288024,101,-4,-7,-9,1,10,34,46
16:20:14.288024,-9,13,8,6,7,-40,42,25
16:20:14.303016,-5,2,4,2,-2,6,28,-7
16:20:14.318004,-6,-2,1,-2,-2,14,75,-7
16:20:14.325003,-2,-9,-19,-21,-26,-42,-66,-40
16:20:14.331995,-53,24,21,20,38,64,72,11
16:20:14.347987,-1,7,1,-3,-19,-19,-25,-20
16:20:14.347987,-21,-6,-3,-2,-4,11,-3,-27
16:20:14.362979,4,4,2,3,9,18,-22,3
16:20:14.369972,5,-2,-3,-45,4,6,45,18
16:20:14.384966,-3,-5,1,-12,6,5,-3,-3
16:20:14.399956,-24,-1,-1,5,-5,-8,7,-36
16:20:14.407951,3,-12,-16,-19,-35,-82,-100,-27
16:20:14.407951,-8,-3,-8,-13,-19,-27,-47,8
16:20:14.422939,0,2,-1,-3,-6,3,15,13
16:20:14.429938,6,6,5,4,8,16,4,1
16:20:14.452922,-1,-3,0,-4,-3,-5,-7,-5
16:20:14.452922,29,13,6,10,15,16,50,28
16:20:14.467911,68,-5,-27,-29,-31,-5,-30,50
16:20:14.467911,-15,-13,-12,-12,-21,-21,-11,-5
16:20:14.489901,35,-13,3,0,6,17,-3,-5
16:20:14.490901,-5,-1,0,-4,-4,2,2,6
16:20:14.504892,-3,-1,-1,-3,-1,-4,-2,-3
16:20:14.511884,10,4,4,3,5,0,2,6
16:20:14.527875,-8,-14,-17,-21,-18,-21,-30,-16
16:20:14.527875,51,-23,-1,4,14,13,26,61
16:20:14.542867,5,6,6,6,4,24,78,42
16:20:14.549864,2,4,-4,-1,6,14,27,0
16:20:14.564855,-1,3,1,6,11,19,-5,-1
16:20:14.579844,-5,-6,-3,-2,0,2,-1,-3
16:20:14.587843,0,-1,-2,-3,2,-3,-3,-7
16:20:14.594834,-17,0,-8,-7,-7,-25,-20,-6
16:20:14.602832,27,-1,-10,-16,-34,-48,-39,2
16:20:14.609826,-14,-13,-16,-20,-17,-18,-16,-23
16:20:14.624818,-10,-4,-7,-8,-12,-13,4,-17
16:20:14.632810,8,-2,-4,-4,3,-6,-12,7
16:20:14.647804,1,2,2,1,5,14,18,9
16:20:14.647804,1,-1,-2,1,6,10,-4,0
16:20:14.662795,-70,-18,-20,-26,-42,-64,-46,-54
16:20:14.669787,12,8,2,0,10,42,32,27
16:20:14.684778,2,1,4,2,7,7,-4,-19
16:20:14.692773,-6,0,3,3,7,8,41,10
16:20:14.707765,6,-1,-4,-1,-2,13,10,17
16:20:14.707765,-3,0,-1,-2,-1,-2,-10,-3
16:20:14.722754,-23,-4,-1,-3,-7,-43,-2,-28
16:20:14.729754,14,10,7,7,8,3,-23,1
16:20:14.744744,-36,7,7,6,1,-1,-19,-37
16:20:14.759733,-7,1,-6,-3,-3,1,-15,-23
16:20:14.767727,-3,-3,-4,-5,-10,-25,21,5
16:20:14.767727,4,1,2,6,3,2,3,9
16:20:14.789714,-3,1,0,-1,3,-2,3,-5
16:20:14.797708,36,13,11,8,17,29,-5,24
16:20:14.804704,-2,4,3,4,6,22,41,33
16:20:14.812703,-40,11,6,6,10,9,-9,-44
16:20:14.827693,-12,-1,1,1,-5,-25,-6,-32
16:20:14.834686,0,3,2,2,9,25,29,4
16:20:14.842681,0,2,1,1,1,-4,-9,-10
16:20:14.849677,-3,1,5,7,3,-7,-8,-15
16:20:14.864667,-10,-6,-3,-2,3,-6,-10,-10
16:20:14.872665,-10,-2,0,-2,14,30,8,-9
16:20:14.887656,4,2,-2,-2,1,-9,-2,-6
16:20:14.895652,24,6,4,-1,10,9,25,28
16:20:14.902647,-4,-1,-2,-2,-3,-1,-6,-9
16:20:14.909640,-1,-5,-6,-4,-5,-5,26,2
16:20:14.924630,1,-14,-15,-11,-7,-11,-14,17
16:20:14.932626,-15,-9,-2,0,-9,-28,-12,-22
16:20:14.947619,0,0,0,1,5,8,-1,3
16:20:14.954613,-8,0,-3,-1,-2,-2,0,-6
16:20:14.977597,-7,-9,-12,-11,-1,-6,-16,-10
16:20:14.977597,2,3,1,1,1,5,4,0
16:20:14.985596,1,2,0,1,-1,-2,-2,0
16:20:14.992592,0,5,4,6,6,11,-3,-10
16:20:15.020576,27,12,8,7,15,14,14,25
16:20:15.021574,2,6,2,4,9,20,13,9
16:20:15.030564,-2,-5,-7,-3,-4,1,-15,-10
16:20:15.030564,-1,-2,1,-1,-2,0,-9,0
16:20:15.044556,-11,-6,-3,-3,-5,-3,-2,-13
16:20:15.052551,1,0,-2,-1,1,-1,0,4
16:20:15.068543,-14,-1,6,5,12,23,-16,-28
16:20:15.082534,-9,-2,-2,0,-5,4,5,-10
16:20:15.096527,0,-2,1,5,3,2,-2,-2
16:20:15.097525,-1,2,1,-1,-1,-6,-5,2
16:20:15.104527,-1,2,2,0,2,7,-4,-2
16:20:15.112515,-3,-3,2,1,1,5,3,1
16:20:15.127504,-1,2,3,0,1,2,0,0
16:20:15.134504,-2,-14,-18,-19,-21,-23,-11,2
16:20:15.149492,7,8,4,3,3,2,23,17
16:20:15.150492,0,-2,-2,-3,-6,-4,19,32
16:20:15.164509,-4,-4,-1,-3,0,0,-5,-7
16:20:15.172485,-4,-3,-2,-2,-6,-6,-3,-3
16:20:15.187469,-2,-1,-3,-2,-3,-5,-2,2
16:20:15.194465,-14,2,4,3,1,-7,-5,-24
16:20:15.209455,-10,3,6,3,4,5,-13,-10
16:20:15.210456,6,1,-2,-1,0,10,19,3
16:20:15.232445,-5,-3,2,2,1,0,1,-5
16:20:15.232445,-3,-3,1,0,2,5,5,3
16:20:15.247431,3,1,-2,-2,-2,0,3,10
16:20:15.254426,-1,6,3,2,4,5,0,-22
16:20:15.270418,0,3,2,4,1,9,31,7
16:20:15.270418,-14,-10,-9,-12,-24,-39,-24,-8
16:20:15.292407,19,0,-3,-6,-7,-5,-1,8
16:20:15.293405,-9,-2,-3,-7,-8,-22,-12,-16
16:20:15.307398,-7,-1,-2,-4,1,-2,-4,-2
16:20:15.314394,1,-4,-6,-1,-1,7,1,0
16:20:15.330380,-4,-3,-5,-1,-5,-5,-5,-4
16:20:15.330380,9,4,0,-3,0,5,12,12
16:20:15.345375,8,-6,-6,-5,-4,4,-7,8
16:20:15.352370,-1,-4,0,-1,-2,6,11,12
16:20:15.375354,-5,3,4,-1,-4,2,5,-13
16:20:15.375354,2,3,4,7,15,20,18,10
16:20:15.390344,0,-1,-2,-1,3,3,-4,-2
16:20:15.390344,0,0,1,1,3,0,1,-1
16:20:15.412333,-1,1,0,2,0,2,-1,-5
16:20:15.413330,-4,2,4,2,0,-5,-6,-9
16:20:15.427324,-17,-10,-9,-9,-27,-43,-10,-28
16:20:15.435320,32,-2,-6,-8,-3,-4,30,64
16:20:15.450307,-7,-6,-3,-1,-1,-8,-7,-12
16:20:15.450307,-4,5,1,2,-1,2,0,-2
16:20:15.465301,-1,0,-3,-2,1,-4,-3,0
16:20:15.472294,3,0,0,1,3,1,-1,2
16:20:15.487287,2,-3,-1,-1,-8,-10,0,-8
16:20:15.502278,-15,-10,-8,-4,2,7,-17,-18
16:20:15.510270,1,8,8,10,17,12,-15,-3
16:20:15.510270,5,1,0,-3,-2,-4,-3,6
16:20:15.540251,-4,0,5,3,4,2,2,-2
16:20:15.540251,0,1,0,0,-3,-4,1,-6
16:20:15.547246,11,4,3,0,2,-2,-9,5
16:20:15.555242,-4,1,0,-1,0,-5,-3,2
16:20:15.570233,-5,-4,-1,-2,-3,-7,-1,-5
16:20:15.570233,-7,-23,-19,-26,-32,-53,-46,-26
16:20:15.592223,-5,-4,-5,-4,1,8,-10,-17
16:20:15.593222,3,3,1,-1,0,7,20,2
16:20:15.607211,8,6,6,8,14,18,24,23
16:20:15.615208,0,1,-1,2,1,3,-4,-3
16:20:15.630196,44,19,10,10,13,23,62,84
16:20:15.630196,-2,5,2,1,3,5,0,1
16:20:15.645190,2,1,2,7,8,8,0,1
16:20:15.652184,9,5,6,12,15,19,11,11
16:20:15.668174,-4,-4,0,-1,-2,2,-10,3
16:20:15.682166,-6,-1,3,5,5,4,9,8
16:20:15.690160,-6,-8,-2,-1,-2,-6,-3,9
16:20:15.690160,-1,-2,-4,0,-1,1,-2,0
16:20:15.705151,-12,0,1,2,-1,-16,-10,-8
16:20:15.712148,-12,-2,0,-1,0,5,4,-20
16:20:15.727136,-6,-2,-3,-4,-1,-3,0,-11
16:20:15.735131,-4,-3,-1,0,5,2,-4,-1
16:20:15.750123,-3,-5,-1,-6,-9,-9,-9,-8
16:20:15.750123,5,-4,-2,-3,0,8,8,13
16:20:15.772110,-6,0,-1,1,-4,-2,-4,-14
16:20:15.773111,-20,-9,-7,-4,-6,-2,1,-18
16:20:15.788102,-1,3,2,2,6,-2,-6,2
16:20:15.795098,-11,-4,-3,0,-2,-5,-8,3
16:20:15.810088,8,5,2,1,2,3,14,21
16:20:15.817084,1,-2,1,1,0,4,0,-2
16:20:15.825079,3,-2,0,1,-1,1,0,1
16:20:15.832072,-5,1,0,4,-3,-3,-16,-14
16:20:15.848062,-24,-13,-12,-12,-14,-15,-14,-20
16:20:15.855058,19,5,7,6,10,6,10,6
16:20:15.870052,-11,-7,-1,0,-5,-5,3,3
16:20:15.878044,3,0,1,0,1,-1,-5,-7
16:20:15.900032,10,6,2,-2,-2,3,6,16
16:20:15.901030,-7,-6,-2,0,1,0,0,-4
16:20:15.907026,-8,-9,-8,-8,-3,-13,-26,-14
16:20:15.915024,-6,-1,0,3,0,-1,-4,-5
16:20:15.930015,-8,-7,-1,0,4,10,7,-3
16:20:15.938008,-10,-12,-12,-13,-20,-24,-18,-15
16:20:15.953000,2,2,3,3,7,7,2,13
16:20:15.953000,7,0,0,-1,0,0,-1,11
16:20:15.967992,2,0,2,-1,-2,0,4,3
16:20:15.974985,6,2,-2,-1,-2,-2,3,7
16:20:15.989976,-16,-14,-9,-9,-2,4,-11,-4
16:20:15.996970,-5,4,0,2,0,15,-5,-11
16:20:16.012964,-3,-3,-5,-4,-8,-6,-3,-6
16:20:16.012964,-6,3,0,-1,4,3,-3,-8
16:20:16.027955,-7,-8,-7,-5,-6,-14,-4,-9
16:20:16.034950,-4,-4,-2,-3,4,2,-1,2
16:20:16.049940,0,1,3,3,-1,0,16,7
16:20:16.057934,4,-11,-10,-6,-5,-4,-10,-1
16:20:16.072924,-9,-4,0,0,0,-1,-2,-5
16:20:16.072924,-21,-4,-1,-2,0,-2,-8,-6
16:20:16.087916,13,1,3,3,7,15,15,23
16:20:16.094910,-2,-1,1,0,-2,-5,-11,-6
16:20:16.117896,-3,-5,-3,-4,-3,-2,-10,-6
16:20:16.117896,1,0,0,3,-2,1,-1,-1
16:20:16.132887,-3,-4,-2,-3,5,2,-11,-6
16:20:16.132887,-7,-4,-3,-4,-3,-7,-13,-13
16:20:16.147880,-3,-2,-1,-4,-4,-2,6,1
16:20:16.154876,9,-6,-6,-3,-8,-28,-30,-6
16:20:16.170867,7,0,-7,-8,-7,-13,1,20
16:20:16.177859,-4,6,3,3,3,5,0,-9
16:20:16.192849,-17,-9,-3,-3,0,1,-3,-17
16:20:16.192849,0,1,-1,3,6,9,5,-3
16:20:16.207840,-3,-3,0,1,0,1,-2,-7
16:20:16.214839,1,-1,-3,-3,-1,-3,4,-2
16:20:16.231830,-6,-1,-2,-3,-1,3,0,-15
16:20:16.237827,-14,-3,-5,-4,0,7,-1,-5
16:20:16.252816,-11,-5,-5,-6,-1,11,-5,-21
16:20:16.252816,8,5,4,2,1,0,11,26
16:20:16.267804,-2,0,0,2,3,4,4,0
16:20:16.274800,-3,0,-2,-5,0,1,2,3
16:20:16.289790,-4,-2,1,-1,-3,-3,-2,-1
16:20:16.297787,1,1,3,3,0,-7,-5,-2
16:20:16.312777,0,7,5,5,6,8,12,-11
16:20:16.312777,-7,-7,-9,-9,-14,-18,-27,-10
16:20:16.327767,-10,0,3,3,4,9,-1,-11
16:20:16.342760,-4,0,3,0,2,0,0,0
16:20:16.349755,2,4,0,3,1,1,0,-1
16:20:16.357749,0,-3,0,0,-5,-4,-6,-5
16:20:16.372742,-4,0,-2,-1,-4,-1,-2,-7
16:20:16.372742,8,6,9,7,10,11,9,3
16:20:16.387733,-3,-1,-3,1,9,35,6,-16
16:20:16.394728,2,-2,-2,3,1,1,1,-3
16:20:16.410717,-6,-2,-1,0,0,-2,-4,0
16:20:16.432702,-2,0,2,3,2,2,0,0
16:20:16.432702,-1,1,-4,0,0,-3,-3,-3
16:20:16.433704,-1,-1,-1,4,1,4,3,1
16:20:16.447692,0,-1,-2,0,-3,0,0,-3
16:20:16.454690,-5,3,2,0,2,-4,-6,-5
16:20:16.470682,-8,-2,-1,0,-7,-3,-9,-9
16:20:16.477677,-17,-3,-3,-4,-5,-5,-13,-14
16:20:16.492665,0,3,1,0,0,-1,1,2
16:20:16.492665,-1,0,2,-1,7,5,6,2
16:20:16.507659,6,2,2,2,6,2,5,8
16:20:16.514651,0,2,-1,0,-2,-1,-6,-6
16:20:16.529643,-10,0,-4,-5,1,-2,1,-13
16:20:16.537641,-9,-5,-1,-1,6,17,7,-12
16:20:16.552632,-3,0,-3,-3,-6,-7,-7,-6
16:20:16.553631,0,-3,-1,-1,-2,-4,-5,4
16:20:16.567620,-3,6,6,1,4,1,-5,-10
16:20:16.574615,-1,0,0,1,2,-2,-2,-1
16:20:16.590610,-2,1,1,-1,3,1,-2,-4
16:20:16.597603,-3,-4,-1,-1,-1,-1,-5,3
16:20:16.612592,3,0,0,3,5,6,4,2
16:20:16.613591,-2,1,0,-1,0,-1,-1,0
16:20:16.627585,-1,-5,-2,1,0,6,1,-4
16:20:16.634581,-1,-1,-3,0,-2,-4,0,0
16:20:16.650568,-1,-1,-1,-3,-4,-2,-2,6
16:20:16.657567,4,-2,-2,1,-3,-10,-1,0
16:20:16.672556,-9,1,-3,0,-6,-1,-3,-1
16:20:16.672556,3,2,1,4,11,1,12,-3
16:20:16.687548,-4,0,-1,-2,-2,-1,-5,-9
16:20:16.694542,4,5,3,3,7,9,5,8
16:20:16.710534,-1,-3,-1,-3,-4,-6,-10,-6
16:20:16.717529,-8,1,-2,-2,1,-8,-9,-3
16:20:16.732521,-3,-1,-3,-2,0,0,0,-6
16:20:16.740513,3,-4,-3,-3,3,-2,6,10
16:20:16.747511,9,4,2,3,6,7,7,15
16:20:16.755506,-13,-6,-7,-4,-8,-14,-17,-20
16:20:16.770497,13,5,5,4,12,23,43,61
16:20:16.785487,-1,2,0,0,-2,1,-1,-3
16:20:16.792484,-1,1,1,2,3,3,2,-3
16:20:16.800478,1,-3,-1,-2,-2,1,2,-1
16:20:16.807474,9,10,5,4,10,16,12,14
16:20:16.814469,2,1,3,4,5,2,-4,13
16:20:16.830463,1,2,0,2,-2,5,5,5
16:20:16.837456,4,-3,-3,-2,-5,-13,-13,-14
16:20:16.852447,-6,-6,-4,-2,-4,-7,-4,-8
16:20:16.860439,1,-1,0,-1,-1,2,0,2
16:20:16.875432,-3,-3,-2,-2,-1,-1,-1,-3
16:20:16.875432,-1,0,0,-2,-2,-2,2,3
16:20:16.890421,8,5,6,2,-3,-7,3,4
16:20:16.897419,-23,-14,-13,-12,-3,-11,4,1
16:20:16.920403,-11,-5,-6,-8,-9,-6,-14,-13
16:20:16.920403,-7,-3,-2,-2,-1,-5,-7,-11
16:20:16.935393,-2,0,2,-1,1,9,8,-2
16:20:16.935393,0,2,-3,-4,-3,1,-1,1
16:20:16.957382,-1,2,-3,0,0,0,-2,-7
16:20:16.958382,1,-1,0,0,1,0,-2,8
16:20:16.980365,-8,-1,2,1,2,-7,-15,-18
16:20:16.980365,-3,-4,2,-1,2,-2,-10,-10
16:20:16.995358,-4,1,2,-1,-1,-4,-11,-11
16:20:16.995358,1,-3,-1,-4,-3,-2,1,2
16:20:17.010347,2,0,0,-1,1,-1,1,2
16:20:17.017342,-2,-2,-6,0,-3,-1,-6,-7
16:20:17.040331,-4,-1,-1,-3,-2,-2,-2,-3
16:20:17.040331,10,-3,-5,-2,-4,-11,-13,-12
16:20:17.055319,-2,-2,0,1,1,2,7,-3
16:20:17.055319,-9,-3,-2,-3,-9,-9,-9,-8
16:20:17.070312,-5,0,-2,-2,0,-2,-6,-10
16:20:17.077308,-2,-5,-5,-5,-1,-4,-4,-4
16:20:17.092299,-1,0,1,0,-1,3,-1,8
16:20:17.100291,-1,0,-1,1,0,4,0,3
16:20:17.115282,0,0,-3,-1,0,-6,-5,-4
16:20:17.115282,-2,-4,-2,-2,-7,-4,-9,-2
16:20:17.130276,-4,-5,-6,-4,-5,-1,0,9
16:20:17.137272,-2,-1,-3,-1,3,0,0,1
16:20:17.152262,-1,1,0,0,1,5,3,-4
16:20:17.160257,-1,2,-3,-2,2,-1,-1,1
16:20:17.175248,-1,-2,-3,0,-4,-3,0,-3
16:20:17.175248,-1,-2,0,-2,-4,-4,-1,4
16:20:17.190239,11,4,5,2,6,8,10,23
16:20:17.197234,-5,-2,0,2,1,7,6,-6
16:20:17.212224,-4,1,3,3,3,5,10,5
16:20:17.227214,-3,-1,1,3,3,7,2,-1
16:20:17.235208,12,8,7,6,11,23,37,39
16:20:17.235208,4,4,0,-1,4,4,1,0
16:20:17.250202,0,-1,-1,1,-2,-2,-2,0
16:20:17.257197,0,0,0,-2,4,4,-1,-6
16:20:17.272187,2,3,2,1,2,6,0,-2
16:20:17.280183,-21,0,3,5,4,-1,-1,-24
16:20:17.295171,-9,-6,-2,-1,-7,-20,-5,2
16:20:17.295171,14,9,6,7,13,23,43,43
16:20:17.310165,-1,-4,-1,0,-2,-1,-1,0
16:20:17.317159,-2,0,-1,-1,3,2,-1,-1
16:20:17.332149,2,1,-1,1,1,0,2,0
16:20:17.340146,-12,-6,-2,0,-1,-6,-9,-8
16:20:17.355137,-2,-4,1,-1,-1,-3,-2,-2
16:20:17.355137,-3,-1,-3,0,6,-1,-12,-7
16:20:17.370131,5,-3,-7,-3,0,5,-10,-4
16:20:17.377121,-4,1,3,5,1,4,2,0
16:20:17.392112,4,3,2,3,0,0,-2,2
16:20:17.400110,-7,0,1,-1,1,-7,-3,-5
16:20:17.415101,-3,-4,0,1,1,1,-2,0
16:20:17.416098,-2,0,3,0,4,1,1,0
16:20:17.430091,3,2,2,1,-1,-5,-4,-5
16:20:17.438084,3,3,1,0,-1,-7,-1,-5
16:20:17.453078,1,0,3,2,1,-1,3,1
16:20:17.460073,-5,-6,-2,-3,-1,4,9,4
16:20:17.482057,5,-3,-3,-3,-4,-3,-6,2
16:20:17.483055,-4,-1,-4,0,0,-1,-2,-2
16:20:17.490054,-12,-5,-2,-1,-4,-1,2,7
16:20:17.497050,-3,-3,-1,-3,-3,-4,-10,-8
16:20:17.520036,10,3,-2,-4,0,2,9,20
16:20:17.521034,-6,-3,1,-4,-1,-5,-6,-6
16:20:17.535024,-5,-4,-3,-5,-6,-10,-9,-5
16:20:17.536023,-3,0,-1,-1,0,2,0,-6
16:20:17.550017,3,1,2,3,8,13,16,14
16:20:17.557009,-5,-4,-6,-1,-2,-4,-6,-1
16:20:17.573002,-3,-3,1,-1,-3,-7,-6,-8
16:20:17.587993,4,4,1,3,0,2,9,17
16:20:17.594990,-3,-3,2,0,-3,1,-1,2
16:20:17.595990,7,5,3,5,6,12,16,17
16:20:17.609980,-3,-2,-3,-3,-8,-9,-17,-5
16:20:17.617973,-4,-3,-1,-2,-3,-8,-2,-2
16:20:17.632966,-10,-8,-5,-2,1,7,-2,-16
16:20:17.639962,-8,-4,-3,1,1,-8,1,-7
16:20:17.654953,-6,-4,-3,-4,-2,4,-2,-5
16:20:17.662945,-9,2,2,1,-4,-13,-8,-5
16:20:17.669944,4,0,0,-2,-1,0,-1,5
16:20:17.677937,-5,0,1,-1,0,-8,-4,-4
16:20:17.692926,3,1,1,0,5,5,2,0
16:20:17.699924,-4,0,1,-1,5,6,-1,3
16:20:17.714916,-3,-2,-1,-2,-4,0,-3,-6
16:20:17.722908,1,2,0,2,10,7,6,13
16:20:17.729907,-3,-5,0,0,-3,-6,-5,-2
16:20:17.737898,-1,-7,-4,-1,1,1,0,-1
16:20:17.752889,-28,-7,0,-1,-12,-13,-8,-10
16:20:17.759885,-4,-8,-7,-9,-12,-7,-9,-8
16:20:17.774879,-8,-3,-1,-5,-9,-11,-4,-1
16:20:17.789869,-10,-5,-3,-1,-7,-12,-7,-2
16:20:17.796862,-7,-1,-2,1,3,5,7,-1
16:20:17.797862,1,-1,-4,-4,-1,2,-4,3
16:20:17.812852,0,-3,0,2,0,1,1,2
16:20:17.819849,-5,-5,-4,-3,-2,-3,-9,0
16:20:17.842836,5,-4,-3,-3,4,2,-3,0
16:20:17.842836,9,1,0,3,11,8,17,30
16:20:17.857828,-1,-4,0,-4,-4,-6,-11,-5
16:20:17.857828,-2,4,0,-1,2,1,3,0
16:20:17.872815,1,1,-1,-1,-3,-5,4,10
16:20:17.887810,2,2,5,2,8,5,7,4
16:20:17.894805,-1,-3,-2,-3,-9,-11,-2,-3
16:20:17.902800,0,1,-1,-1,2,10,17,13
16:20:17.917788,7,-5,0,0,-6,-16,-5,18
16:20:17.917788,-23,-8,-8,-8,-3,5,-10,-26
16:20:17.932779,0,1,0,2,8,12,-1,-9
16:20:17.939775,-3,-6,1,-6,-5,-9,-4,-2
16:20:17.954768,2,3,2,6,4,4,-3,0
16:20:17.962763,-2,0,-3,3,-17,-8,-4,-1
16:20:17.977751,-2,-1,1,13,8,0,-5,0
16:20:17.977751,-21,-9,-6,-64,3,11,10,2
16:20:17.992742,-3,-8,-9,-20,-40,-11,-5,-7
16:20:18.007736,11,3,1,8,12,5,8,24
16:20:18.014728,3,1,1,0,5,5,4,2
16:20:18.022726,3,0,-3,-1,-5,-3,3,6
16:20:18.037717,-2,-1,-3,-3,-4,-5,6,7
16:20:18.037717,-7,-5,-6,-8,-9,-12,-4,-8
16:20:18.059701,-2,2,7,4,4,9,3,-4
16:20:18.060703,-6,1,-1,6,-1,-6,-5,-7
16:20:18.074693,-8,-6,-7,-6,-3,1,-4,-4
16:20:18.090685,-4,-4,-2,0,1,-1,0,-2
16:20:18.097678,9,2,5,2,-3,-1,5,1
16:20:18.097678,5,1,1,-19,-1,-1,-8,1
16:20:18.112669,-4,-6,-6,-5,-11,-17,-12,2
16:20:18.120667,-3,-3,0,0,4,4,-1,-2
16:20:18.135657,-4,0,-1,3,-1,3,2,-3
16:20:18.149646,-3,-3,-1,-16,-13,-1,-1,0
16:20:18.157643,1,2,2,5,14,11,10,7
16:20:18.157643,-3,3,2,0,5,3,4,6
16:20:18.172632,10,-4,-7,-9,-17,-28,-11,6
16:20:18.180627,-4,6,2,1,0,10,3,-1
16:20:18.195620,-1,-2,2,4,6,5,3,-1
16:20:18.202616,15,8,0,-2,-2,0,7,25
16:20:18.217603,3,0,0,-1,4,0,-3,-3
16:20:18.218603,1,-2,0,-1,-1,-2,-3,2
16:20:18.232597,-1,-2,-1,-14,-1,3,1,4
16:20:18.240589,1,-2,-4,-3,0,6,3,9
16:20:18.255583,-5,0,-2,1,-9,-4,-2,-11
16:20:18.262579,-7,-4,-6,-6,0,-4,-3,0
16:20:18.285564,5,-1,-3,-2,2,-2,-3,-2
16:20:18.285564,5,1,2,0,-2,-7,1,6
16:20:18.292560,-1,1,-1,1,-1,0,0,-2
16:20:18.299555,1,2,2,3,6,4,1,0
16:20:18.315544,-8,-2,1,-3,-7,-9,-6,-9
16:20:18.322542,-8,-2,-3,0,-1,1,-9,-17
16:20:18.337533,7,-6,-6,-6,-2,-12,-11,9
16:20:18.338531,2,1,2,3,-1,-3,-3,-1
16:20:18.352523,-5,-4,-1,-1,-1,3,0,-4
16:20:18.367511,-6,2,-3,-2,-2,-4,-3,1
16:20:18.375509,-1,-4,-4,-4,-3,-2,-4,0
16:20:18.382505,-1,-1,-4,-1,4,-3,-2,-1
16:20:18.397496,12,4,4,5,5,5,3,-3
16:20:18.398494,-5,2,3,3,5,-2,7,-4
16:20:18.412484,6,1,-1,-1,-1,9,-2,15
16:20:18.420482,2,-1,1,3,2,6,5,6
16:20:18.435472,0,1,-1,0,0,0,0,-4
16:20:18.442468,1,0,3,1,1,2,6,4
16:20:18.457459,8,-1,3,3,11,8,1,3
16:20:18.458458,-1,-3,1,0,-3,0,1,-2
16:20:18.472449,13,9,3,6,7,8,6,21
16:20:18.480442,-10,0,-1,2,0,0,-1,-8
16:20:18.495434,-10,-5,-4,-7,-10,-19,-16,-15
16:20:18.502431,-3,-1,2,-3,-4,-2,-5,-5
16:20:18.517419,1,1,-1,-1,0,-2,3,1
16:20:18.518418,-6,2,-1,7,6,3,-5,5
16:20:18.532413,1,-6,-6,-8,-4,-3,-4,-13
16:20:18.540408,-6,-6,-6,-7,-7,-4,-3,-6
16:20:18.555398,-7,-1,1,2,4,8,2,-10
16:20:18.562394,-2,-1,3,3,1,-2,-3,4
16:20:18.577385,9,5,2,-3,2,1,10,18
16:20:18.578383,1,0,0,0,1,0,4,-2
16:20:18.592375,0,-5,0,-1,0,2,-3,-5
16:20:18.600370,2,-4,-3,-3,-1,-1,0,1
16:20:18.622357,7,0,0,0,0,0,17,10
16:20:18.623356,-4,-2,-1,4,8,22,0,-14
16:20:18.645340,-4,0,1,0,0,-1,-4,-4
16:20:18.645340,-1,-1,1,1,1,0,-2,-4
16:20:18.652339,1,-1,0,-2,-2,-1,2,0
16:20:18.660334,-3,-1,-2,0,-3,-4,-9,-7
16:20:18.675325,-9,-1,-2,-1,1,7,3,-5
16:20:18.682320,-3,-4,-6,-6,-12,-17,0,5
16:20:18.697310,-4,6,6,5,4,0,8,-13
16:20:18.705306,-2,-3,-1,0,-4,-3,-4,-3
16:20:18.712302,-1,-5,-2,-2,-3,-9,-3,-6
16:20:18.720297,3,1,5,2,2,0,2,-1
16:20:18.735285,-4,0,1,0,-6,-7,-4,-6
16:20:18.742281,-5,-2,1,-1,2,6,2,-6
16:20:18.757271,-2,-1,-1,0,-4,-6,-2,-6
16:20:18.765270,0,-1,1,-1,-3,-8,1,9
16:20:18.780257,4,-2,-3,-2,0,-10,-5,-5
16:20:18.780257,-3,2,-3,-2,-2,-1,6,5
16:20:18.795251,0,0,0,3,3,0,2,-2
16:20:18.802243,-8,-4,-3,-3,4,3,0,-8
16:20:18.817237,7,2,3,4,4,1,8,13
16:20:18.825229,3,-5,-3,-4,-1,1,-2,2
16:20:18.840220,-1,1,-2,1,-1,0,-3,-6
16:20:18.840220,-4,0,1,-1,-1,-4,-3,-6
16:20:18.862210,-6,0,-4,-4,-5,-5,-11,-7
16:20:18.863209,-5,0,-4,2,-1,0,-1,4
16:20:18.878200,16,2,0,2,5,3,2,6
16:20:18.885195,4,-1,-1,-3,-6,-11,-2,-1
16:20:18.900186,2,0,2,0,1,5,7,2
16:20:18.900186,-4,0,2,2,2,-4,4,-7
16:20:18.922173,-2,-1,0,2,-1,2,1,-5
16:20:18.923170,-3,-2,-4,0,-3,-5,-5,0
16:20:18.938163,0,-2,1,-1,1,-1,-6,2
16:20:18.945159,-4,-2,-2,0,1,6,0,-4
16:20:18.960149,18,4,2,2,-4,-2,-15,-2
16:20:18.960149,-3,-1,-1,2,-4,-8,-1,-9
16:20:18.990128,-2,-4,-1,-3,-3,-1,1,-7
16:20:18.990128,-6,-6,-3,1,-1,-3,-3,-3
16:20:18.997125,-4,-3,-2,-2,-2,0,-8,-9
16:20:19.005122,-3,0,4,3,-2,4,7,5
16:20:19.020114,-8,-5,-2,0,-2,-6,-6,-1
16:20:19.021109,2,3,1,2,4,-1,-2,-6
16:20:19.035103,-5,-5,-4,-4,2,1,-1,-4
16:20:19.042099,5,-4,-5,-5,-5,-13,-6,1
16:20:19.058088,0,1,2,0,0,-2,1,-2
16:20:19.065085,-1,-1,-2,-2,0,-1,-2,-7
16:20:19.080075,6,3,1,0,2,6,8,8
16:20:19.080075,1,1,1,5,5,4,4,2
16:20:19.095067,7,9,3,4,3,1,5,6
16:20:19.103058,-7,0,0,-1,-3,0,-9,-8
16:20:19.118049,-4,1,0,-2,-2,0,-6,-18
16:20:19.125048,-7,-7,-5,-5,-8,-10,-7,-8
16:20:19.140039,-2,2,-2,2,-1,-2,-5,-6
16:20:19.140039,-5,-4,1,-1,1,0,-1,-4
16:20:19.155029,-2,-1,0,0,1,-4,2,5
16:20:19.170020,0,1,0,2,4,0,0,6
16:20:19.177016,-12,-4,-3,-2,-3,-6,-17,-15
16:20:19.185011,5,2,-1,2,0,-2,-6,5
16:20:19.200001,0,0,1,-1,0,0,1,-3
16:20:19.200999,-5,4,1,3,3,6,14,5
16:20:19.214989,-7,-3,-1,-2,-6,-6,0,0
16:20:19.222985,-3,-3,-4,-3,0,3,-1,-1
16:20:19.237979,2,-3,0,-2,-1,-2,-3,-4
16:20:19.244971,-12,-10,-7,-7,-6,-8,-6,4
16:20:19.259962,1,3,0,2,0,-7,-4,-6
16:20:19.260965,-13,3,5,5,8,7,15,-11
16:20:19.274955,-4,0,3,2,-1,3,6,-2
16:20:19.289946,-8,-5,-2,-2,-1,-2,-4,-7
16:20:19.297940,0,-2,-3,0,2,-4,-1,-4
16:20:19.304937,0,1,-4,-2,-3,-5,1,2
16:20:19.319928,-2,-5,-6,-5,-7,-5,-6,-2
16:20:19.320926,14,6,1,4,5,6,-3,4
16:20:19.334918,6,4,3,3,-1,-8,-4,4
16:20:19.342912,10,5,3,3,8,9,25,35
16:20:19.356905,-3,1,2,0,2,4,-4,-8
16:20:19.364900,-1,-2,-1,-2,1,3,-1,-4
16:20:19.387883,-6,-2,-4,-1,-3,-5,-7,-4
16:20:19.388882,-6,-1,0,-2,-6,-8,-4,-5
16:20:19.394879,-5,0,1,1,3,-1,-3,-1
16:20:19.402877,-7,-4,-5,-1,-4,-3,-5,-7
16:20:19.424863,3,0,2,-4,0,-1,-1,7
16:20:19.425862,6,6,2,4,5,10,2,-8
16:20:19.447846,3,5,2,2,-4,-1,7,-6
16:20:19.447846,5,-2,3,0,0,0,-2,2
16:20:19.454844,-2,0,-3,-4,-4,1,1,-3
16:20:19.462837,-1,-3,-2,-3,-1,1,-2,-1
16:20:19.477830,1,-1,-3,0,1,0,2,-1
16:20:19.484824,-10,0,-1,-1,0,3,1,-3
16:20:19.499815,3,3,1,4,5,17,19,21
16:20:19.500814,-6,-4,0,-1,-7,-10,-11,-11
16:20:19.522800,2,0,-2,-2,-2,-1,-4,-9
16:20:19.522800,2,1,-3,0,-1,2,-4,-4
16:20:19.537794,1,4,1,2,0,1,3,1
16:20:19.544789,3,1,-1,-1,1,-4,-2,3
16:20:19.560780,-9,0,2,2,-1,1,4,-4
16:20:19.567775,19,0,1,-1,-2,-5,1,21
16:20:19.582763,1,0,1,1,-5,-9,-5,-1
16:20:19.582763,-5,-5,-3,-4,-14,-16,0,-2
16:20:19.597757,-8,-2,1,1,-3,-1,-4,-4
16:20:19.604749,-2,-2,-1,0,2,3,-1,1
16:20:19.620741,6,2,1,-2,-2,-4,-4,1
16:20:19.627738,4,0,3,3,3,12,4,-1
16:20:19.642729,-6,0,-4,-3,-1,2,-2,-6
16:20:19.642729,6,-2,-2,-1,0,-1,-13,-11
16:20:19.657720,-1,-5,-2,0,-4,-1,0,-5
16:20:19.664712,10,-5,-6,-5,-4,-15,-17,6
16:20:19.680706,-4,-5,0,0,-1,4,11,3
16:20:19.695697,0,1,-1,2,-3,-10,-4,0
16:20:19.702689,0,-1,-1,1,2,2,-2,0
16:20:19.703689,-1,-2,-4,-2,2,-2,-4,-7
16:20:19.724678,1,-3,-1,-1,2,5,0,9
16:20:19.725675,-8,-5,-2,-2,2,1,3,0
16:20:19.740666,14,4,-1,0,-6,-12,-7,2
16:20:19.747667,-5,0,3,1,-1,-5,-6,-5
16:20:19.769648,4,2,3,4,7,2,-3,-4
16:20:19.770650,-6,-4,-6,-1,-3,-5,-4,-11
16:20:19.784641,-2,0,-1,-1,-1,-3,-4,1
16:20:19.785641,-5,-3,1,1,1,1,-3,-3
16:20:19.800630,0,1,6,4,0,5,3,1
16:20:19.807628,13,8,9,9,7,11,11,9
16:20:19.822616,0,-7,-9,-8,-12,-16,-21,-12
16:20:19.822616,3,1,3,3,0,-1,-4,-3
16:20:19.837609,-5,-5,-4,-5,-6,-8,-2,-6
16:20:19.844602,-1,0,-1,0,-2,0,-1,1
16:20:19.860592,-1,2,2,-5,-4,-9,-2,-3
16:20:19.867590,-1,4,0,3,3,2,-4,0
16:20:19.882582,-5,-5,1,-1,0,-4,-8,-14
16:20:19.883580,-12,-5,-6,-5,-8,-8,-3,-10
16:20:19.897570,-9,-1,2,2,-2,-5,-7,-7
16:20:19.929550,5,1,-2,0,1,6,9,7
16:20:19.930550,-2,0,1,3,6,16,18,0
16:20:19.930550,4,-2,2,0,2,2,0,3
16:20:19.944541,5,0,-3,-2,-4,-8,-7,3
16:20:19.944541,-8,-6,-2,-3,-4,-4,-5,-6
16:20:19.957533,15,6,7,0,3,-4,6,8
16:20:19.964588,5,5,4,3,4,9,3,-5
16:20:19.979521,-7,-1,1,2,0,6,-1,-12
16:20:19.987515,-3,-1,-3,-5,0,-4,0,-7
16:20:20.002504,-1,0,0,-3,1,2,-3,0
16:20:20.002504,-1,0,-2,-1,-2,-2,1,-1
16:20:20.017494,2,-4,-1,1,3,6,7,5
16:20:20.032487,1,-2,-8,-8,-8,-3,2,4
16:20:20.040482,-1,1,-1,2,6,9,0,8
16:20:20.047477,10,4,-1,1,-1,-5,11,28
16:20:20.062468,0,3,2,2,1,-3,-1,-3
16:20:20.062468,-5,-3,-2,-3,-3,-5,-5,-5
16:20:20.094448,-4,-2,-4,-4,2,0,-1,3
16:20:20.118433,2,2,0,1,0,0,-1,-1
16:20:20.122431,0,-1,-3,-6,-1,0,1,12
16:20:20.123430,-7,1,-3,-1,1,4,-1,-6
16:20:20.123430,6,-1,-2,-1,-1,0,-3,5
16:20:20.123430,0,-5,-1,0,1,1,-4,-4
16:20:20.141420,11,7,4,5,10,14,23,18
16:20:20.144419,4,-2,2,0,-3,-1,9,1
16:20:20.160415,-1,-3,-2,0,1,3,0,-4
16:20:20.167404,-4,0,-1,-1,-1,-1,-1,-2
16:20:20.182394,-7,-1,-2,-1,1,4,-3,-4
16:20:20.189392,4,-2,-2,0,-4,-2,2,-3
16:20:20.197385,19,1,0,-2,1,8,14,43
16:20:20.204385,1,-5,-3,0,0,-13,-26,-6
16:20:20.227365,-4,-1,1,2,3,2,4,-5
16:20:20.227365,-2,-2,0,-1,-4,-8,1,3
16:20:20.242357,-4,-1,-2,-2,-3,-3,-3,-3
16:20:20.242357,0,0,0,-3,-3,0,0,-2
16:20:20.257348,-9,-2,-2,0,-3,-3,2,-3
16:20:20.264346,-4,-3,-1,-4,-7,-9,-9,-18
16:20:20.280334,-5,-5,-3,-5,-11,-15,-6,-3
16:20:20.287330,-5,-3,-1,1,7,-8,-6,2
16:20:20.309318,-4,-4,-5,-3,-5,-5,-7,-13
16:20:20.310314,-3,0,0,-3,1,4,-1,1
16:20:20.317310,-1,-2,1,0,1,-1,-2,-2
16:20:20.324310,-3,-2,-1,1,-3,-5,1,4
16:20:20.340297,10,1,2,0,1,4,-1,7
16:20:20.347293,-7,-5,-6,-11,-11,-11,-5,5
16:20:20.362284,0,1,1,3,4,9,1,-1
16:20:20.362284,2,-3,-4,-4,2,4,1,-5
16:20:20.377274,1,1,1,0,-4,0,0,-5
16:20:20.384272,-4,4,1,-3,-3,-3,-3,-5
16:20:20.407256,2,-1,1,1,-1,-6,1,1
16:20:20.407256,-2,-1,-5,-1,-1,-7,1,6
16:20:20.422247,-21,-4,2,0,-1,-5,5,1
16:20:20.422247,-3,-2,1,-3,-6,-12,-4,1
16:20:20.437236,-1,1,1,1,2,1,2,-5
16:20:20.444235,-4,-2,-3,-4,2,-1,3,-2
16:20:20.460223,2,-1,2,0,-1,0,-1,0
16:20:20.467217,-15,-12,-9,-10,-11,-16,-17,-19
16:20:20.482210,-5,1,3,0,0,-5,-11,-12
16:20:20.483211,4,0,1,-4,0,-3,10,15
16:20:20.498200,-8,-2,-1,0,-2,-3,-3,-11
16:20:20.505196,-15,-3,0,2,4,4,2,-10
16:20:20.520189,-1,0,0,-5,-6,-7,-6,1
16:20:20.535180,-4,-1,-1,-2,1,0,2,-2
16:20:20.542173,12,2,2,1,5,4,3,15
16:20:20.557164,0,1,4,0,5,15,3,5
16:20:20.558164,10,5,6,3,-1,0,-2,-1
16:20:20.565161,-1,-4,-3,-4,-6,-7,-7,-2
16:20:20.587144,-1,1,-1,1,0,12,18,8
16:20:20.588145,-4,-1,-3,-3,3,-3,-2,3
16:20:20.602136,-8,-6,-7,-5,-9,-11,-15,-3
16:20:20.618127,-10,-6,-6,-2,-7,-4,-4,-3
16:20:20.625121,4,10,8,8,14,12,26,11
16:20:20.625121,1,0,0,-1,2,-1,19,16
16:20:20.640115,-1,-3,-1,-2,-3,-1,-5,-1
16:20:20.647108,-5,-3,-3,1,4,11,2,3
16:20:20.663098,-4,0,2,-2,-7,-16,-12,-12
16:20:20.670097,4,5,2,0,-2,4,7,8
16:20:20.685088,-9,-6,-5,-3,-9,-7,-7,-12
16:20:20.686084,-11,-2,-4,-3,-1,1,-3,-3
16:20:20.700078,1,-3,-3,-2,-7,-9,-8,-1
16:20:20.707071,-10,-4,-1,0,4,7,-3,-12
16:20:20.723061,-4,0,0,-1,-5,-8,-7,-10
16:20:20.730060,-5,-8,-8,-10,-12,-30,-14,-10
16:20:20.745051,0,4,1,2,1,1,3,7
16:20:20.746047,-1,0,-1,2,0,-2,-2,2
16:20:20.760040,0,2,0,-2,-4,-6,-3,-4
16:20:20.768035,-1,1,2,1,2,1,1,2
16:20:20.783027,2,0,-1,2,1,-1,-12,-5
16:20:20.790023,3,-3,-1,0,0,3,6,6
16:20:20.805014,-7,-1,-1,3,5,3,-7,-18
16:20:20.806010,-2,-1,1,1,0,-1,-2,-1
16:20:20.827999,-2,1,3,-4,-3,-1,-3,-3
16:20:20.827999,-4,-2,0,2,8,13,10,-1
16:20:20.842987,3,2,0,0,1,7,15,7
16:20:20.849986,-13,-12,-9,-9,-5,-3,-5,-24
16:20:20.864977,-2,-4,-2,-2,-9,-11,-11,-11
16:20:20.865973,-1,-9,-6,-14,-21,-31,-6,5
