timestamp,emg1,emg2,emg3,emg4,emg5,emg6,emg7,emg8
15:35:42.319417,1,3,-2,-1,-3,-3,3,2
15:35:42.327411,1,-1,-2,-3,-1,-4,2,0
15:35:42.342402,-1,-2,0,0,4,-2,-2,-1
15:35:42.343402,-1,2,0,3,0,0,0,2
15:35:42.357395,-1,-3,-2,-10,0,0,-2,-2
15:35:42.371384,-2,-6,-3,1,0,-3,-3,-1
15:35:42.380379,0,1,-1,-4,1,-2,-1,2
15:35:42.395369,1,-2,1,1,-2,-3,-3,-2
15:35:42.402365,-2,2,-1,-2,-2,-2,-1,0
15:35:42.402365,0,-4,-2,0,-1,0,-2,-1
15:35:42.417358,-1,-1,-3,-6,-3,-3,-3,-4
15:35:42.431349,0,-2,-2,2,6,-1,0,-1
15:35:42.447336,-1,-1,-1,0,-17,-3,0,4
15:35:42.447336,0,-1,-1,-1,6,2,0,3
15:35:42.462327,-2,-3,-2,2,6,0,0,1
15:35:42.462327,0,2,2,11,7,6,4,-1
15:35:42.477321,1,1,0,2,3,-3,-1,-1
15:35:42.487315,-2,-1,-6,-23,-4,-2,-2,-4
15:35:42.499305,-2,-2,-1,3,-6,-4,0,1
15:35:42.507302,-2,1,1,-1,1,-4,-3,-2
15:35:42.522293,1,0,-1,-2,1,-2,-1,-1
15:35:42.522293,1,1,-2,-2,-6,0,1,1
15:35:42.537281,-3,-2,-1,0,4,1,-3,-1
15:35:42.551275,-3,1,-4,1,-2,-2,0,-1
15:35:42.559268,-2,-2,0,-2,-2,4,-1,1
15:35:42.567265,-3,-2,-1,1,-3,1,-2,-1
15:35:42.582255,-1,-2,1,-5,-1,2,-3,-3
15:35:42.582255,-1,-1,0,-1,-7,-2,-2,-4
15:35:42.597245,0,-3,-1,-1,1,-1,1,1
15:35:42.611235,-4,-5,-4,-2,-4,-4,-1,-3
15:35:42.620232,0,1,-1,0,-5,0,-1,0
15:35:42.627228,-3,-2,0,-2,-1,1,-1,-1
15:35:42.642219,0,-3,-3,0,-10,-1,-3,2
15:35:42.642219,0,0,-1,-1,-1,2,1,0
15:35:42.657209,-2,1,0,-6,-2,0,-4,2
15:35:42.671200,-2,-4,1,7,-1,1,-1,-2
15:35:42.680192,-3,-3,-4,2,-3,-7,-2,-3
15:35:42.687187,-5,0,1,-5,-2,-1,0,-1
15:35:42.702181,0,0,-1,0,0,-2,-2,0
15:35:42.703181,-1,2,-2,-3,-1,4,3,0
15:35:42.717172,0,0,-1,1,0,-2,-2,-4
15:35:42.731162,-2,-4,-3,-5,0,-7,-2,-1
15:35:42.739159,0,-1,-1,-2,-2,0,2,1
15:35:42.747153,-4,0,-2,-3,-2,-2,-3,-2
15:35:42.762143,-3,-2,0,-1,0,-2,-1,-1
15:35:42.762143,-1,0,-2,-5,-1,1,-1,-1
15:35:42.777135,-1,-1,0,3,-6,-6,-1,-3
15:35:42.791126,-1,-2,2,-3,1,0,-2,-1
15:35:42.800120,0,-2,3,8,5,2,-1,0
15:35:42.807116,-3,-1,2,1,2,-2,-2,-5
15:35:42.822107,0,0,2,-2,0,-5,0,-2
15:35:42.823106,-1,0,-1,5,9,0,0,0
15:35:42.837097,-1,-1,-3,-4,-7,-3,-3,1
15:35:42.851089,0,-1,-2,-5,-1,-2,1,0
15:35:42.859090,0,0,0,7,-6,-5,-1,3
15:35:42.867076,-3,-1,-2,-4,-4,-1,-2,-1
15:35:42.882070,2,3,6,2,-3,-3,2,3
15:35:42.883066,0,-2,0,-4,-1,-5,-3,-1
15:35:42.897059,-4,-3,0,-1,0,0,0,-2
15:35:42.906059,0,1,0,2,-1,-3,-3,1
15:35:42.920046,-3,-3,-1,0,1,-2,-2,-3
15:35:42.927042,-1,-2,1,-2,-2,-2,2,1
15:35:42.942033,-3,-2,-1,-1,1,3,-1,-2
15:35:42.943029,-2,0,0,-1,-4,1,1,-1
15:35:42.957023,-5,-3,-4,-1,-3,-4,2,-1
15:35:42.971015,0,-1,0,2,2,2,-2,0
15:35:42.980006,-1,-5,-3,-3,-1,-1,-1,-2
15:35:42.987005,-1,-2,1,-3,-2,-3,-3,-3
15:35:43.001995,4,0,0,-3,6,4,0,0
15:35:43.002992,5,-1,3,5,-4,0,1,1
15:35:43.016986,-3,-2,-4,-1,-1,1,-1,0
15:35:43.024983,0,-1,1,-4,-7,1,-1,0
15:35:43.039971,0,-1,-1,-2,2,4,1,0
15:35:43.054962,1,1,2,3,-7,-4,-2,2
15:35:43.061958,-3,-3,-3,4,2,3,0,-3
15:35:43.062956,1,1,2,1,5,2,-1,-2
15:35:43.076949,-1,-3,0,1,1,1,0,0
15:35:43.090940,-1,3,-1,2,8,3,0,2
15:35:43.099934,1,1,1,1,6,-1,1,-2
15:35:43.106930,-4,-2,-2,-2,3,-1,-2,-3
15:35:43.121921,-2,0,-3,-1,4,3,2,1
15:35:43.122921,-1,-2,1,-1,0,0,0,1
15:35:43.136911,-2,0,2,0,2,-3,-1,-3
15:35:43.150903,-1,-2,-1,-2,1,-3,2,0
15:35:43.159897,-3,0,-3,-1,-3,-1,1,-2
15:35:43.166892,-2,-2,2,2,-1,0,1,-1
15:35:43.181884,1,1,2,-6,-7,0,-1,-1
15:35:43.182880,1,1,0,3,-1,2,-1,3
15:35:43.196874,-3,-2,-3,-3,-1,0,-4,-3
15:35:43.210866,2,1,-2,-21,1,-1,0,2
15:35:43.219860,0,0,0,0,-9,-4,-3,-3
15:35:43.226855,-1,-1,-2,0,2,1,2,-1
15:35:43.241847,-2,-1,-2,-1,-2,-1,-2,0
15:35:43.242846,0,0,-2,-8,-7,-3,2,0
15:35:43.256836,1,0,2,9,6,-1,-1,2
15:35:43.270829,-1,-4,-1,2,3,-1,-3,-1
15:35:43.279822,2,2,1,2,2,-3,-1,1
15:35:43.286817,-3,-1,-1,-4,-7,-3,-3,-2
15:35:43.301809,-1,0,1,-1,0,1,0,2
15:35:43.309804,-1,-1,-3,-4,-11,-1,1,-4
15:35:43.325793,1,2,-3,-24,0,-3,-2,1
15:35:43.325793,2,-2,-3,-2,-1,0,-1,0
15:35:43.339784,-2,-4,-1,-2,-6,0,0,-2
15:35:43.346779,-2,-5,-3,4,0,0,-2,-1
15:35:43.361770,-1,-3,0,0,4,2,-3,1
15:35:43.369767,-3,-2,-1,-4,-2,-3,-1,0
15:35:43.385757,-5,-1,-2,-1,-3,-3,-2,-3
15:35:43.385757,-1,-2,-1,2,-1,-3,0,0
15:35:43.399748,-4,-1,-1,-3,3,0,-1,0
15:35:43.406743,-2,1,-4,1,0,1,-1,-2
15:35:43.422734,-3,-3,-2,-1,1,1,-2,-3
15:35:43.429729,-3,-1,-2,0,-7,-3,0,-1
15:35:43.445717,-1,0,0,0,5,5,0,1
15:35:43.445717,1,2,1,1,3,0,0,-3
15:35:43.459711,-4,-3,-4,1,0,-1,0,-2
15:35:43.466704,-1,-3,-1,2,-1,0,-1,-1
15:35:43.481704,-1,6,3,1,-1,0,-2,-1
15:35:43.489693,-1,-4,-1,1,-5,-2,7,-1
15:35:43.505683,2,4,1,1,6,10,10,-1
15:35:43.505683,0,1,1,-1,-1,0,-1,-3
15:35:43.519674,2,1,0,-4,-7,-1,3,3
15:35:43.526666,-3,0,0,0,-3,0,0,0
15:35:43.549656,1,-2,-2,0,2,1,1,2
15:35:43.556651,-1,-2,-5,-3,1,-4,-3,-1
15:35:43.565643,-3,1,-1,-1,-11,-5,-1,-2
15:35:43.565643,-3,-1,-2,1,-5,0,-1,-1
15:35:43.586635,2,1,1,-3,5,-2,0,2
15:35:43.587631,-1,-2,-2,-3,0,0,2,0
15:35:43.602623,0,-3,1,3,2,2,-4,-4
15:35:43.609618,0,1,-3,-3,7,2,-1,4
15:35:43.625606,0,-1,-2,-2,0,0,-2,-3
15:35:43.625606,-2,-1,0,13,-7,-2,3,1
15:35:43.639600,2,-1,-1,3,2,3,2,-1
15:35:43.654590,-3,-1,2,1,-2,-1,-1,-4
15:35:43.669581,-1,0,1,0,5,-3,-1,0
15:35:43.669581,-2,0,-1,2,-7,-5,-1,-2
15:35:43.685568,-5,-1,-3,-4,-1,-5,-4,-5
15:35:43.685568,-2,2,-3,0,-3,-2,-1,-1
15:35:43.699562,0,-1,1,4,1,-1,1,3
15:35:43.707558,-1,2,-1,-3,0,0,1,-3
15:35:43.722549,2,-3,0,-1,-1,-1,-1,-1
15:35:43.729543,-1,1,-2,0,4,-2,-4,-2
15:35:43.745532,1,-1,-1,-1,-5,-2,0,-2
15:35:43.745532,-3,-2,-4,-22,1,2,-2,0
15:35:43.759525,0,-1,0,6,2,-2,2,1
15:35:43.767520,1,1,-1,7,8,-1,-1,-1
15:35:43.782514,-3,-2,-2,1,-1,-3,0,0
15:35:43.789507,2,-2,-1,-4,0,1,3,0
15:35:43.805495,-4,0,-4,-1,-3,1,1,0
15:35:43.805495,0,-2,2,2,-1,-3,-1,-1
15:35:43.819485,0,-2,-2,-2,-1,0,-1,-2
15:35:43.827483,-3,2,-4,-2,0,-3,-3,-1
15:35:43.842474,-4,-2,1,-1,4,2,4,-3
15:35:43.849470,-3,4,-2,-2,-1,-1,-1,1
15:35:43.865459,2,-1,-2,-3,-15,-5,-2,0
15:35:43.865459,-2,-2,-1,1,3,1,-2,-3
15:35:43.887443,-2,0,2,-3,-2,0,-2,-3
15:35:43.887443,-3,0,-3,16,1,1,-2,0
15:35:43.902437,2,2,-2,5,2,3,1,1
15:35:43.909433,-1,-2,-1,-1,2,0,-1,-3
15:35:43.925420,2,-1,1,0,-1,-2,-1,0
15:35:43.925420,0,0,-1,-3,-7,1,-1,-1
15:35:43.939413,2,0,3,-3,-3,-2,-1,1
15:35:43.947408,0,1,0,0,3,-2,-1,2
15:35:43.962399,-1,-2,2,1,-15,-1,1,3
15:35:43.969395,-3,-4,0,0,4,-1,-4,-2
15:35:43.985385,1,1,18,-3,-4,0,-4,1
15:35:43.985385,-2,-1,-1,-1,-4,-4,0,-2
15:35:43.999375,-2,-5,-19,6,5,-2,-3,0
15:35:44.007372,-5,-3,-17,-8,1,0,-1,-2
15:35:44.022360,-5,0,16,33,51,4,-2,-5
15:35:44.029357,2,-5,-64,-102,-44,-8,-1,0
15:35:44.045345,6,5,-26,-11,0,2,4,3
15:35:44.045345,-20,-16,15,53,12,-7,-9,-14
15:35:44.059337,-3,-4,4,-5,1,0,-2,1
15:35:44.074329,9,15,26,4,32,12,4,5
15:35:44.082326,-6,-15,-10,58,41,-5,-2,-3
15:35:44.089320,15,27,2,-3,47,6,4,7
15:35:44.112303,-5,-31,-74,-106,35,3,0,3
15:35:44.112303,0,31,27,127,127,26,2,-7
15:35:44.119300,22,28,108,127,-128,13,15,17
15:35:44.127297,18,50,127,127,127,61,14,13
15:35:44.142288,17,15,19,9,127,103,22,14
15:35:44.149281,22,30,25,-50,46,78,14,11
15:35:44.165273,15,1,8,-128,-128,-108,3,13
15:35:44.165273,-45,-25,52,127,127,52,-17,-34
15:35:44.180264,27,5,-9,-128,-30,111,20,18
15:35:44.187260,-1,17,-21,127,-128,-109,-17,-11
15:35:44.202251,7,-37,-28,127,127,103,26,18
15:35:44.209244,17,51,56,127,-128,-100,-2,11
15:35:44.231231,-9,-16,-9,89,127,16,-7,-13
15:35:44.232232,30,31,-55,-128,-128,-86,16,26
15:35:44.247222,-31,-24,-17,127,127,10,-25,-42
15:35:44.247222,-12,-36,-36,-46,-86,7,2,1
15:35:44.262213,1,32,5,-54,121,-2,0,-2
15:35:44.269208,9,8,18,40,48,19,6,3
15:35:44.291196,1,-2,-24,-39,-20,1,7,5
15:35:44.292195,10,-21,4,127,-6,8,13,34
15:35:44.307186,-8,-5,34,127,-79,-4,-7,-10
15:35:44.307186,26,74,29,-39,21,-16,-9,-5
15:35:44.322177,-5,-4,41,127,20,10,0,-7
15:35:44.329181,14,7,61,-59,-61,6,8,11
15:35:44.351159,45,69,6,-97,49,6,12,14
15:35:44.352158,-9,-2,-50,-128,-128,-96,-12,-6
15:35:44.367148,-27,-61,-50,-113,-128,-60,-5,-10
15:35:44.368148,11,46,18,-121,-128,-6,-2,-4
15:35:44.390134,60,124,82,90,93,20,4,13
15:35:44.390134,23,79,17,-117,59,49,3,9
15:35:44.411118,33,41,56,1,114,25,11,22
15:35:44.412120,36,43,-16,-128,127,-13,7,11
15:35:44.427112,55,80,24,-37,68,4,15,21
15:35:44.427112,-78,-128,-86,127,127,42,-8,-21
15:35:44.442102,10,14,46,16,-128,24,3,0
15:35:44.450098,-26,-13,-27,-54,-91,-13,-18,-19
15:35:44.468084,-1,-60,-56,-75,72,-8,4,10
15:35:44.472084,31,94,10,-128,-128,-96,-6,7
15:35:44.487074,-24,-16,27,-61,-67,-28,-11,-15
15:35:44.488074,7,18,16,-128,-128,-6,1,-3
15:35:44.502065,18,21,-27,-123,110,-29,5,7
15:35:44.509060,2,8,99,127,127,17,7,4
15:35:44.531046,-4,-2,-34,-52,69,-23,-8,-5
15:35:44.532046,22,52,23,-88,-128,-61,7,4
15:35:44.547036,-12,-21,-44,-126,-87,16,0,0
15:35:44.547036,21,43,62,60,-67,-13,-1,7
15:35:44.562027,-53,-72,-28,76,127,29,-15,-24
15:35:44.570020,-8,-13,47,127,118,23,7,3
15:35:44.591009,30,71,30,-87,-128,-31,3,11
15:35:44.600004,7,11,56,127,127,104,10,11
15:35:44.607000,15,16,-5,-128,-69,-10,3,7
15:35:44.607999,-3,-36,-57,20,-50,26,6,7
15:35:44.621990,-7,-1,-11,-77,-39,-36,-7,-7
15:35:44.629983,16,22,21,-59,-73,-28,4,6
15:35:44.651972,-20,-40,-55,31,-58,-7,-2,-5
15:35:44.652972,-1,-15,-28,-71,127,29,10,9
15:35:44.666962,-16,-15,17,105,126,35,-7,-12
15:35:44.667959,21,12,15,-53,-37,-36,8,15
15:35:44.681951,21,34,-14,56,-71,-6,8,6
15:35:44.689946,1,2,-12,-9,-93,-29,-8,-3
15:35:44.710935,-11,-21,-15,-3,40,34,-4,-5
15:35:44.711934,18,22,27,39,36,26,6,11
15:35:44.726925,9,21,31,5,23,18,1,0
15:35:44.727922,-11,-13,7,127,33,11,-5,-9
15:35:44.749908,5,9,-9,-43,-84,-15,1,2
15:35:44.749908,-17,-13,12,97,-128,7,-5,-7
15:35:44.770898,11,6,-4,-27,127,53,8,5
15:35:44.771897,-6,-9,-18,-128,-128,-51,-1,-3
15:35:44.786888,-4,6,7,15,127,50,-2,-9
15:35:44.787888,6,18,27,7,46,-40,-1,4
15:35:44.809871,-41,-49,-20,92,36,43,-10,-20
15:35:44.809871,-16,-17,12,36,127,36,-6,-10
15:35:44.830860,33,66,-14,-128,-40,4,8,13
15:35:44.831861,2,14,9,-65,117,7,-1,-4
15:35:44.846850,-2,2,8,62,-92,49,3,-2
15:35:44.847848,-45,-55,-51,2,100,37,-14,-22
15:35:44.861840,24,24,35,-47,58,6,9,14
15:35:44.869837,5,2,-29,-84,-104,-31,5,4
15:35:44.890824,4,10,29,127,127,22,3,2
15:35:44.891820,10,29,56,121,-37,-2,5,0
15:35:44.906814,6,9,-11,-19,57,4,1,5
15:35:44.907813,5,13,30,35,-55,-33,-3,-3
15:35:44.921802,20,26,3,-4,127,57,8,8
15:35:44.929799,-20,-29,6,118,-47,12,0,-5
15:35:44.950787,-18,-24,5,26,125,43,-4,-10
15:35:44.951785,4,4,0,-37,-84,-5,-2,-1
15:35:44.966777,7,9,10,67,127,47,7,6
15:35:44.967776,-3,2,9,50,-58,-39,-2,1
15:35:44.996757,0,-9,-22,-128,-128,-51,-5,0
15:35:44.997757,-10,-7,-6,-32,-128,-18,-1,-3
15:35:45.010749,-40,-63,-47,-32,-93,19,-12,-22
15:35:45.011746,9,8,16,18,80,-1,3,8
15:35:45.026737,1,3,-5,12,47,-60,-8,-4
15:35:45.027737,-2,0,7,18,42,21,4,0
15:35:45.041729,-10,-26,2,127,127,38,-2,-3
15:35:45.049725,-4,9,-1,-45,-75,-31,-6,-1
15:35:45.070712,1,-2,-11,-43,17,-6,2,1
15:35:45.071712,-24,-67,-61,-16,45,52,-7,-8
15:35:45.087699,10,24,42,77,6,13,-2,-1
15:35:45.087699,-21,-39,-44,62,34,28,0,-5
15:35:45.102690,3,10,11,8,127,-14,1,-2
15:35:45.109688,-7,-5,-11,-58,-53,-19,-8,-5
15:35:45.131673,-8,-17,-3,77,-11,-2,0,-4
15:35:45.132671,4,3,-9,-19,-21,0,4,0
15:35:45.146663,1,3,12,7,-11,-8,-3,0
15:35:45.147664,2,3,-1,5,-35,-5,-1,1
15:35:45.169651,6,12,6,-41,-100,-34,-3,1
15:35:45.170649,-8,-20,1,48,127,24,-1,-5
15:35:45.190637,19,41,14,-105,-110,-17,-1,-2
15:35:45.191637,-7,-13,28,77,-128,-1,-1,0
15:35:45.207628,-5,6,13,93,127,52,-7,-11
15:35:45.216619,7,8,6,-18,-128,-12,7,7
15:35:45.229613,-4,-7,-7,1,9,1,-4,-2
15:35:45.229613,8,12,10,5,-35,-11,0,4
15:35:45.250600,-13,-12,-9,43,-11,-10,-4,-9
15:35:45.252599,3,1,2,-4,-7,-3,3,4
15:35:45.267591,-5,-7,1,53,48,19,-4,-2
15:35:45.280581,-14,-25,-28,-33,-112,-31,-7,-5
15:35:45.289577,-4,1,3,1,3,1,-3,-1
15:35:45.290576,10,20,18,-32,-30,-8,1,3
15:35:45.310561,-9,-18,-15,2,9,-5,-3,1
15:35:45.312559,1,4,2,-7,-6,-2,0,-2
15:35:45.327553,-1,1,0,3,4,2,-3,-1
15:35:45.342543,-1,0,2,0,-3,-1,-3,-2
15:35:45.349540,-7,-3,2,3,5,7,12,0
15:35:45.350539,12,-11,-15,-15,-7,15,-7,7
15:35:45.364529,-5,-13,-13,-13,-25,-47,127,-84
15:35:45.372525,36,-10,2,-4,6,-1,-17,51
15:35:45.387513,-57,1,-11,-9,-27,-55,-47,-32
15:35:45.394511,117,82,25,18,32,18,127,-128
15:35:45.409502,-91,-64,-22,-22,-24,13,-128,115
15:35:45.417496,3,13,25,20,-5,-73,-68,-87
15:35:45.432488,9,2,15,18,45,87,-52,83
15:35:45.432488,127,30,2,-7,-15,-36,23,52
15:35:45.447478,-74,-17,4,7,33,50,-128,-41
15:35:45.460469,8,-1,-12,-15,-24,-33,27,-21
15:35:45.469465,-20,1,10,15,13,2,33,-26
15:35:45.470462,1,0,-3,-7,-8,-9,-4,-6
15:35:45.491449,2,-2,0,4,5,6,-1,6
15:35:45.492451,3,-1,-14,-36,-29,-10,-9,5
15:35:45.507441,-4,4,31,127,127,23,-4,-6
15:35:45.521433,33,13,-30,-110,-106,-28,-17,11
15:35:45.529427,-1,-22,41,124,107,17,18,21
15:35:45.530424,-2,38,4,39,-57,-19,6,0
15:35:45.552412,-64,2,-22,-76,82,24,-4,-10
15:35:45.552412,-15,5,-25,127,-128,-66,-76,-58
15:35:45.567404,13,-10,15,127,127,-67,-2,20
15:35:45.580397,103,24,6,-108,26,51,68,25
15:35:45.589390,-9,30,43,78,-128,-37,-9,20
15:35:45.590389,-60,-10,-53,29,-128,5,31,-51
15:35:45.612379,31,-27,-4,127,127,47,26,87
15:35:45.612379,4,9,22,127,127,67,24,16
15:35:45.627367,-54,26,36,127,80,21,-128,-105
15:35:45.641356,24,15,-16,-33,14,48,37,12
15:35:45.649353,-36,1,9,-7,11,7,-6,-48
15:35:45.650353,-25,-10,-5,-26,85,-3,-128,-31
15:35:45.671340,9,11,27,127,127,32,56,11
15:35:45.672339,4,-11,-6,48,127,-34,0,41
15:35:45.687329,-3,-5,0,37,20,47,6,-19
15:35:45.701321,-10,-10,-2,-2,-31,20,16,-17
15:35:45.709313,27,5,-15,-30,-91,39,8,27
15:35:45.710314,-128,-23,-1,-21,-16,-14,-18,-41
15:35:45.731302,9,15,13,1,12,10,25,24
15:35:45.732302,-6,-4,-25,-73,-128,-8,-1,-4
15:35:45.747292,0,2,16,93,127,31,7,2
15:35:45.758286,1,-1,-10,37,9,-30,-7,-1
15:35:45.769279,-4,-6,9,9,64,4,3,-6
15:35:45.770275,-5,8,-22,-26,6,1,5,3
15:35:45.791262,-31,-17,-12,0,-86,-14,-1,0
15:35:45.792265,13,6,9,-109,-19,5,1,19
15:35:45.807256,-5,-20,-15,127,127,19,1,-3
15:35:45.821247,-11,-3,17,45,127,-23,-5,-9
15:35:45.829241,11,-11,-3,-3,72,16,4,7
15:35:45.830241,2,1,-4,127,127,13,13,-3
15:35:45.851227,-8,-1,7,10,47,-17,-8,-15
15:35:45.852228,-1,1,-3,-63,-95,-27,-19,-26
15:35:45.867218,-1,-4,-14,50,43,4,-19,15
15:35:45.881209,-7,3,24,42,-128,17,20,-15
15:35:45.889201,18,-9,-4,108,102,-3,-19,-1
15:35:45.890203,-5,-15,9,8,-128,-20,-4,-5
15:35:45.911188,-10,-10,-5,-12,18,-7,-8,-12
15:35:45.912190,-5,5,-29,-69,-74,-7,-3,-1
15:35:45.936174,5,3,12,22,-96,15,17,12
15:35:45.936174,-9,6,0,-63,68,25,5,-7
15:35:45.950164,-20,-6,-4,11,22,-3,-3,-13
15:35:45.950164,-2,-2,-1,44,-112,-4,27,19
15:35:45.965155,3,-3,-3,19,-62,9,4,3
15:35:45.972153,-5,3,6,0,-8,-7,-1,-3
15:35:45.987144,0,1,-20,-91,-128,-19,2,-1
15:35:46.001134,-21,-8,-7,42,105,-6,-17,-7
15:35:46.010127,0,4,5,35,28,-1,-8,-6
15:35:46.010127,-7,0,-3,33,112,-6,-15,-16
15:35:46.031116,-2,2,10,64,105,6,-8,-3
15:35:46.032116,3,9,7,1,-53,-2,6,2
15:35:46.047106,0,-6,15,-13,-15,-11,-9,-3
15:35:46.061097,13,1,11,120,51,9,3,2
15:35:46.077089,3,-1,-4,75,64,6,11,12
15:35:46.077089,-21,-1,4,33,65,4,-1,-15
15:35:46.091080,1,4,7,73,73,12,-1,-7
15:35:46.092079,-3,-3,-5,58,43,6,2,-8
15:35:46.107070,-6,1,3,-47,30,6,3,2
15:35:46.121061,-4,-5,-16,19,-128,-18,-7,-5
15:35:46.130055,42,-2,2,19,41,11,-13,11
15:35:46.137051,-3,3,14,102,62,8,4,-3
15:35:46.152041,5,2,-11,8,-51,-3,1,-2
15:35:46.153041,-17,-12,-18,-128,-100,-21,-5,-11
15:35:46.167032,-4,-2,4,28,30,7,-3,-7
15:35:46.177023,2,3,8,7,56,17,12,8
15:35:46.190018,-5,4,-4,-107,-128,-31,-7,3
15:35:46.197013,-5,-5,2,-83,73,10,-5,-6
15:35:46.212004,1,1,3,47,2,-5,-14,-1
15:35:46.213005,1,1,-6,-41,-38,1,-1,-1
15:35:46.226995,0,0,2,2,-128,-11,-1,0
15:35:46.240986,0,0,-2,-1,12,3,-2,-1
15:35:46.249981,-2,-2,-4,0,0,1,1,-3
15:35:46.256973,-4,-3,-4,-2,-5,1,-1,-3
15:35:46.271968,1,-3,-2,-4,-7,2,0,2
15:35:46.272963,-2,-3,0,-38,-115,-6,10,0
15:35:46.286958,3,-3,-4,45,23,-9,-1,-5
15:35:46.300950,-8,-1,3,57,20,4,5,6
15:35:46.309943,2,0,-9,-21,-92,-8,1,1
15:35:46.316939,-5,-3,-2,23,0,-1,0,-6
15:35:46.331930,2,4,1,10,38,3,7,-3
15:35:46.332927,3,0,3,-2,13,-2,-3,0
15:35:46.346920,4,4,-4,-73,-86,-4,-3,3
15:35:46.361910,-14,-8,-1,36,-41,-12,-16,-15
15:35:46.369907,-1,-4,-1,-2,-1,-4,-3,-1
15:35:46.377901,1,0,-4,11,36,9,1,3
15:35:46.391893,1,-3,-3,50,-14,-13,-6,-3
15:35:46.392892,-6,0,1,-5,-25,0,-1,-6
15:35:46.406883,3,1,3,29,-60,1,-1,5
15:35:46.420875,-1,1,-1,33,-105,-7,2,-1
15:35:46.429867,-1,0,7,127,20,9,0,1
15:35:46.450855,-4,-4,-5,-6,3,-5,-4,-4
15:35:46.451854,0,-3,4,16,12,1,-1,6
15:35:46.452856,0,-1,1,-2,-3,2,-2,1
15:35:46.466844,-8,-5,7,-12,-38,0,-4,-1
15:35:46.480836,3,7,4,-1,-16,6,4,2
15:35:46.489830,-1,-2,-6,34,10,-3,-3,-1
15:35:46.496826,-3,0,-5,-18,-58,-9,0,-2
15:35:46.511816,-6,-6,-9,11,-16,-3,-7,-9
15:35:46.512815,-1,0,2,25,14,2,3,0
15:35:46.526807,2,-2,-8,-50,-62,-4,0,4
15:35:46.534803,1,0,1,7,8,1,1,3
15:35:46.549793,2,2,0,2,0,1,0,-3
15:35:46.570780,2,3,1,-3,17,1,-1,-3
15:35:46.571779,3,0,0,-42,-6,-6,0,2
15:35:46.572783,0,-3,-5,1,9,1,-1,-3
15:35:46.586769,3,0,2,-6,0,0,2,-2
15:35:46.597764,-3,-2,-2,0,-18,-2,0,-1
15:35:46.609756,-2,-2,-4,-4,2,0,-2,-3
15:35:46.616757,-3,2,0,-9,-63,-10,0,1
15:35:46.639737,-3,-1,1,4,-11,0,-2,-5
15:35:46.639737,2,1,3,3,34,-3,-1,-2
15:35:46.646738,-2,-1,-5,-78,-25,-3,-1,-1
15:35:46.654733,-8,-4,-6,22,14,-5,-3,-4
15:35:46.669721,-1,-4,0,-8,-5,-1,1,2
15:35:46.676713,3,3,4,1,-22,-10,2,4
15:35:46.691705,-1,0,-3,-3,0,0,-2,0
15:35:46.692703,1,1,-1,3,-4,-4,-2,-2
15:35:46.706698,-3,0,-2,-1,0,2,-2,-2
15:35:46.720687,-1,-1,-1,0,-1,-1,-2,-1
15:35:46.729682,3,3,-2,4,33,-1,2,1
15:35:46.736679,-4,-2,-3,42,25,-1,-5,0
15:35:46.751666,0,-3,-3,-11,-17,-3,0,-1
15:35:46.752667,4,0,2,-26,10,1,2,2
15:35:46.766666,1,1,-2,6,-3,-4,1,-1
15:35:46.780650,0,3,0,1,-1,-1,0,1
15:35:46.789647,0,-2,-1,-4,2,-2,0,1
15:35:46.797646,-1,1,-2,-4,11,-4,-2,-3
15:35:46.812629,1,1,3,-19,7,1,1,2
15:35:46.812629,-3,-2,-6,-121,-16,-5,-4,-3
15:35:46.827621,-6,-6,-4,41,6,-1,-6,-6
15:35:46.840615,-2,-1,0,-1,-3,2,2,0
15:35:46.849609,0,-2,2,-5,-3,-1,1,0
15:35:46.856617,-3,-1,-1,0,-1,0,-2,-1
15:35:46.872593,1,0,-2,-3,1,2,2,-1
15:35:46.872593,0,-1,-2,8,3,-1,-2,2
15:35:46.887583,1,1,0,3,-6,-6,3,-3
15:35:46.900577,-1,-2,0,14,-33,-9,-5,-1
15:35:46.917566,-1,-3,1,14,37,3,0,-1
15:35:46.917566,1,-1,3,5,57,5,4,6
15:35:46.931555,-2,1,0,-3,19,-7,-3,-2
15:35:46.932556,2,-2,-2,-7,1,4,-1,2
15:35:46.947547,2,2,0,5,2,-5,0,2
15:35:46.962537,-6,-3,-6,1,1,-1,-3,-3
15:35:46.969532,-2,0,-1,-4,-4,-1,2,0
15:35:46.977527,0,0,-1,-8,6,3,1,0
15:35:46.992518,-3,-2,-1,-35,-5,-4,-5,-4
15:35:46.992518,1,0,1,16,18,-5,2,2
15:35:47.007511,1,1,-1,-4,3,2,-2,-2
15:35:47.022502,-3,-2,-3,9,18,0,-2,0
15:35:47.029497,-3,-2,-1,10,21,-7,-1,1
15:35:47.037493,0,-2,0,-1,5,-1,-1,-4
15:35:47.052483,4,1,-1,-2,-5,-5,2,3
15:35:47.052483,-4,-3,0,1,1,0,-1,1
15:35:47.082461,-2,-2,-1,2,7,1,-3,1
15:35:47.082461,1,-1,2,10,-36,-10,-1,3
15:35:47.089460,-5,-4,-3,6,13,1,-6,-4
15:35:47.097455,3,2,4,46,1,1,2,3
15:35:47.112444,1,1,0,9,26,-2,0,0
15:35:47.119442,-4,2,1,5,21,-3,-9,-11
15:35:47.135432,0,3,-2,4,-12,-7,-9,0
15:35:47.135432,-6,-5,-2,-1,39,7,11,-10
15:35:47.149422,-1,-3,-4,-14,43,-4,-27,-3
15:35:47.157418,6,0,-3,-128,-54,1,-1,18
15:35:47.172409,-6,-3,1,93,-28,-7,-2,-9
15:35:47.179402,1,1,0,0,4,1,-2,-2
15:35:47.195392,-3,0,-1,-128,-35,-1,0,0
15:35:47.196392,4,2,-1,-6,-24,-3,5,9
15:35:47.217381,-5,-3,-4,17,-38,-7,1,3
15:35:47.231371,-3,0,3,19,16,0,-5,-4
15:35:47.232369,0,0,0,-4,37,-1,1,0
15:35:47.239367,1,-3,-3,-31,-21,-5,-2,-2
15:35:47.255357,-2,-2,-1,12,9,-2,-1,-1
15:35:47.255357,-1,0,0,-1,-8,-1,-3,-5
15:35:47.277344,0,-2,-3,-8,-2,-2,0,-1
15:35:47.278341,-1,-4,-2,-2,-8,-4,0,-2
15:35:47.292335,-5,-3,-4,-3,10,0,-2,-1
15:35:47.299329,1,-3,1,7,3,2,0,1
15:35:47.317316,0,1,-1,-29,15,0,0,2
15:35:47.317316,4,4,0,5,15,-2,-2,-4
15:35:47.334308,-2,-2,-2,2,17,0,10,-7
15:35:47.337307,2,0,-1,-3,-36,-6,-2,-1
15:35:47.359293,1,0,-3,1,-20,-2,3,0
15:35:47.360289,0,-1,3,4,7,2,1,-1
15:35:47.375282,-3,1,-2,-7,-4,-2,-1,-3
15:35:47.375282,0,2,0,25,1,-1,3,1
15:35:47.389272,-5,-5,-2,-13,-6,3,-1,-8
15:35:47.397268,-1,-1,-5,1,-1,-2,-4,-3
15:35:47.412257,-3,-3,2,-19,-118,-8,-4,1
15:35:47.419255,-3,-2,0,9,49,-1,-2,-2
15:35:47.444237,1,0,-5,-6,13,3,-2,-4
15:35:47.444237,4,3,1,-2,-3,2,-1,0
15:35:47.449233,-2,1,0,-3,-2,1,-2,0
15:35:47.457228,-4,-2,-2,2,3,0,11,-4
15:35:47.472220,1,-1,-1,7,-3,-7,-12,-3
15:35:47.479215,-4,-1,1,13,0,0,-3,-4
15:35:47.500202,1,1,1,-1,2,1,-4,-5
15:35:47.502201,1,5,5,0,-3,3,12,23
15:35:47.509197,5,4,2,2,9,3,7,0
15:35:47.517193,2,-2,1,21,36,9,10,13
15:35:47.532183,1,-4,-1,-3,-11,-11,-9,-9
15:35:47.539178,-3,-4,1,7,-31,-8,0,-2
15:35:47.561164,-3,-5,-5,-6,82,5,0,-6
15:35:47.562184,-2,-3,0,4,2,0,-5,-7
15:35:47.569159,2,3,-1,4,2,1,7,5
15:35:47.577155,-4,0,-1,-6,-3,-3,1,-1
15:35:47.592146,-4,-3,-1,0,-17,-3,-4,-2
15:35:47.599140,3,1,-1,1,-2,-13,-17,-2
15:35:47.615131,-1,-2,-4,-6,0,3,2,9
15:35:47.615131,0,1,-1,-14,-38,-1,4,1
15:35:47.629141,0,-2,-1,12,10,1,0,-3
15:35:47.637119,0,-1,0,-2,-5,-8,0,-7
15:35:47.652109,1,1,1,0,2,0,2,-4
15:35:47.659145,-2,-1,-2,16,26,5,1,-3
15:35:47.675103,-5,-3,0,4,8,7,-3,-3
15:35:47.675103,2,1,3,3,2,-6,1,-1
15:35:47.690085,1,0,2,-3,5,0,0,0
15:35:47.697083,-1,2,1,-1,11,-1,-3,-1
15:35:47.712073,-2,-1,-2,2,0,-1,1,-2
15:35:47.719070,-1,2,-1,19,-1,2,-5,1
15:35:47.736057,-3,-1,-3,11,0,-3,-3,-4
15:35:47.736057,-2,0,-1,-3,5,0,1,0
15:35:47.750051,1,-4,0,0,-3,-3,-4,-2
15:35:47.757046,-3,1,0,-4,-7,-4,0,0
15:35:47.772037,2,-2,-1,23,32,0,0,2
15:35:47.787027,-1,-4,0,11,18,-4,-2,-4
15:35:47.795020,3,3,4,14,25,-1,8,11
15:35:47.796022,1,-1,-3,-18,13,1,-2,-1
15:35:47.810013,-3,-3,-6,-3,-1,3,9,-5
15:35:47.817008,-2,0,-2,-35,-14,-5,-12,-7
15:35:47.831999,-3,-1,-1,6,5,0,1,-1
15:35:47.839995,-4,0,0,0,-3,-4,-6,-4
15:35:47.855985,4,-2,1,-1,6,-1,5,4
15:35:47.855985,-3,-1,-1,-3,1,-1,2,-3
15:35:47.869976,1,2,0,15,18,-2,-9,5
15:35:47.876971,-1,-2,-4,-25,12,3,-2,-3
15:35:47.891962,-4,-2,-1,5,4,-5,-6,-3
15:35:47.899956,-4,-1,-1,-3,3,2,-2,-1
15:35:47.915947,0,-1,-1,2,4,2,11,-3
15:35:47.915947,0,0,0,-8,-3,-1,-1,2
15:35:47.929936,-1,-3,-4,-39,-1,0,-1,-3
15:35:47.937934,-2,2,0,11,8,-2,1,-6
15:35:47.951925,-1,-3,-3,-1,-19,-2,-1,-1
15:35:47.959918,0,-2,1,15,30,3,4,0
15:35:47.975907,-1,-4,1,-5,9,-3,1,0
15:35:47.975907,-2,1,1,11,8,2,1,0
15:35:47.989902,0,0,-1,-5,9,5,-1,0
15:35:47.996896,2,-3,0,-5,4,-5,-2,0
15:35:48.011885,-1,-2,-1,-1,-3,-4,-1,0
15:35:48.019884,0,-1,-1,1,6,3,-4,-2
15:35:48.040870,-3,-1,-2,-8,-13,2,0,3
15:35:48.041866,-2,-1,1,-30,-12,1,0,-2
15:35:48.056860,-4,-1,-2,8,1,-2,-1,-8
15:35:48.057857,2,2,-1,-30,-2,3,6,2
15:35:48.079845,2,-1,1,-4,1,0,0,1
15:35:48.079845,1,-3,-1,4,4,0,4,4
15:35:48.100832,2,0,2,0,8,-5,1,1
15:35:48.101830,-2,-1,-1,0,9,0,-2,-6
15:35:48.116822,0,0,0,-5,6,5,1,-2
15:35:48.117820,1,1,1,0,9,-2,-3,-2
15:35:48.132811,-1,-4,-1,-3,-7,-2,-3,-2
15:35:48.139806,0,1,0,0,2,-2,-2,-1
15:35:48.160793,4,2,-1,-5,-5,-2,-1,1
15:35:48.161792,0,2,1,41,41,2,2,2
15:35:48.176786,-1,-1,-2,15,13,-3,-4,-3
15:35:48.177782,1,1,0,4,3,-4,0,-3
15:35:48.192773,1,0,-1,-8,7,2,3,0
15:35:48.199772,-1,0,1,2,-2,-2,1,1
15:35:48.220759,-1,-3,-1,-7,-5,-1,-1,-3
15:35:48.221758,0,-1,0,1,-1,1,1,0
15:35:48.236748,0,0,-1,1,15,4,0,2
15:35:48.237748,-1,-2,4,-1,-1,-4,-4,-3
15:35:48.252739,1,1,-1,-2,1,2,0,-4
15:35:48.259734,0,-1,2,4,1,-2,-1,2
15:35:48.280720,2,2,1,-27,19,3,4,1
15:35:48.281718,-4,-1,0,-12,1,-6,-4,-2
15:35:48.305706,-2,0,3,-2,7,3,-1,-1
15:35:48.305706,-2,0,0,0,-6,-6,1,2
15:35:48.312699,-2,-4,-3,-4,-11,2,-1,-5
15:35:48.319697,-3,-2,-1,1,6,-1,-2,-1
15:35:48.341680,-1,0,-2,-1,-13,-2,-2,0
15:35:48.341680,0,-1,0,1,1,-1,0,5
15:35:48.356671,3,0,1,-2,0,-4,2,0
15:35:48.357671,0,-3,-1,4,-11,0,-1,2
15:35:48.371662,-3,-2,-3,-35,-7,-5,-2,1
15:35:48.379661,-2,0,-4,-4,23,0,0,0
15:35:48.400643,0,4,2,19,15,-2,1,1
15:35:48.401651,-1,-2,-3,-32,-1,1,-1,1
15:35:48.416647,-1,-1,-1,4,3,-2,-3,1
15:35:48.417634,0,2,2,-1,-1,-2,-3,1
15:35:48.431627,1,-3,-1,-1,-5,-1,-3,2
15:35:48.439634,4,1,1,1,6,-1,1,4
15:35:48.460606,-1,1,0,25,-8,-3,-3,0
15:35:48.461609,-2,-2,-4,6,8,-4,-4,-1
15:35:48.476596,0,0,0,-3,10,-3,0,-3
15:35:48.477596,-3,-3,-3,-4,-2,-3,-1,-2
15:35:48.491598,3,-1,-3,-7,-1,0,-1,0
15:35:48.499583,-1,-1,-1,-19,-1,-5,-4,-3
15:35:48.521569,-1,0,-1,12,-21,-4,0,1
15:35:48.522569,1,1,0,-3,23,0,0,1
15:35:48.536559,-3,-3,-2,-1,3,0,-1,-1
15:35:48.537560,0,1,0,2,4,-1,1,3
15:35:48.551553,0,-2,-3,-7,-5,-3,0,-4
15:35:48.559546,-2,-2,1,-27,-2,-1,-1,-1
15:35:48.580532,0,-3,-3,-1,-6,0,-1,-3
15:35:48.581532,-1,-2,-2,3,-5,-3,0,-2
15:35:48.596522,-3,-5,-1,2,3,-2,-2,-5
15:35:48.597523,-1,0,-1,-30,-9,-1,1,-1
15:35:48.611515,-1,2,0,5,6,-3,-1,-2
15:35:48.619509,0,-2,0,-2,-1,1,2,2
15:35:48.640501,-2,4,-4,-3,3,2,-3,1
15:35:48.641497,0,-1,-1,-3,2,-1,-1,0
15:35:48.656502,-3,-1,-1,0,4,-2,-4,-1
15:35:48.657486,0,0,-2,-32,-5,7,-4,1
15:35:48.671479,1,0,0,3,-4,-5,-2,1
15:35:48.679472,-2,0,-1,-10,12,0,-3,-1
15:35:48.701486,-1,0,3,13,25,2,1,0
15:35:48.702456,-2,-1,-4,11,16,6,1,1
15:35:48.717447,1,-3,-5,5,-16,-3,1,4
15:35:48.717447,-1,-1,0,-1,2,0,-3,0
15:35:48.732441,-2,0,-1,2,8,0,-2,0
15:35:48.739437,-3,1,0,-32,-10,1,-1,-3
15:35:48.761423,-3,-3,-2,-3,-2,-4,-1,2
15:35:48.762423,0,0,-2,12,-16,4,3,2
15:35:48.777412,-3,-3,0,-2,6,-2,-3,-2
15:35:48.777412,1,-3,-2,-15,-40,1,-1,-2
15:35:48.792404,-1,1,0,2,11,-1,0,-1
15:35:48.807394,-1,0,-3,1,2,1,1,-1
15:35:48.821383,0,-3,-1,2,4,-3,0,-2
15:35:48.822387,-5,-2,-1,24,18,-1,-3,-2
15:35:48.837373,-5,-3,-4,-7,-6,-3,-1,1
15:35:48.837373,0,-4,2,6,7,-2,1,0
15:35:48.852367,-1,-3,4,1,6,3,-1,-2
15:35:48.859362,1,1,0,7,-7,-3,-3,-5
15:35:48.877349,0,3,1,-8,2,0,-2,-4
15:35:48.882345,-3,-1,-2,-7,-54,-2,0,1
15:35:48.897336,1,-1,-2,-1,13,1,-3,-3
15:35:48.898341,-2,0,2,1,-1,0,1,3
15:35:48.912330,1,-4,3,11,15,6,0,-2
15:35:48.919325,2,1,-2,-56,-34,-3,1,3
15:35:48.941312,-4,-2,-3,9,17,3,-2,-3
15:35:48.942311,0,-3,0,-2,-4,-3,0,0
15:35:48.957298,-1,-1,1,2,3,-1,1,1
15:35:48.957298,-2,-3,-3,-8,-2,-4,-5,0
15:35:48.979288,-1,-3,0,-5,-13,-2,-1,-2
15:35:48.980285,-3,2,-1,1,-33,-7,-3,-3
15:35:48.995275,0,-2,-6,-4,18,3,2,-2
15:35:49.002273,0,-1,1,-2,-3,1,1,0
15:35:49.026259,2,1,1,4,5,1,2,-1
15:35:49.026259,-1,0,0,-34,-10,-3,-3,-2
15:35:49.039250,4,3,2,3,11,1,-2,-1
15:35:49.040247,-2,-5,0,0,-4,-1,0,-2
15:35:49.061237,3,-1,-2,-41,-7,-4,-1,0
15:35:49.062237,2,-1,3,20,38,1,1,1
15:35:49.077225,-2,-3,-1,-5,9,-4,-4,-3
15:35:49.091216,1,1,-3,-5,1,-4,-1,0
15:35:49.107209,2,-1,-2,-3,2,0,1,1
15:35:49.107209,-3,-4,-3,21,0,-8,-1,-5
15:35:49.116203,1,2,-1,6,-12,-4,1,4
15:35:49.130192,-5,-4,-3,-1,8,0,-2,-5
15:35:49.137190,3,2,-1,-1,4,3,2,2
15:35:49.148181,-3,-2,3,-1,-5,1,-3,-1
15:35:49.159177,0,-2,1,8,3,-2,-1,2
15:35:49.160174,-3,-1,2,7,4,0,-2,-2
15:35:49.181163,3,-1,1,-2,25,2,6,1
15:35:49.182163,-1,1,0,-4,-1,-2,0,1
15:35:49.197153,0,-2,-2,15,4,-3,-4,-4
15:35:49.205145,-2,1,2,5,16,0,-1,-1
15:35:49.219137,-1,-1,-2,-1,-2,-6,-4,-2
15:35:49.220139,1,1,-2,-4,-1,-1,0,0
15:35:49.241125,2,-1,-1,6,3,0,1,-2
15:35:49.242125,2,0,-4,-27,-14,-1,0,1
15:35:49.257115,-1,-3,-1,6,8,1,-2,-1
15:35:49.265111,-3,-1,1,1,-5,-2,-1,0
15:35:49.279100,-1,-3,-3,-3,-3,1,2,2
15:35:49.280102,-2,0,-3,4,-4,-1,-2,0
15:35:49.301088,-3,-2,2,19,-33,-1,0,-2
15:35:49.302088,0,-3,-5,1,1,-1,-4,-3
15:35:49.317078,0,1,0,1,7,0,1,-4
15:35:49.325074,1,-1,1,-1,9,4,0,2
15:35:49.340063,-1,0,1,1,-3,-1,1,-1
15:35:49.340063,1,-3,-1,-1,-4,-2,-1,-4
15:35:49.361049,1,-2,-2,-5,0,-1,2,-2
15:35:49.362050,-3,0,-1,-4,3,2,0,-1
15:35:49.377042,-1,2,1,4,-11,-2,-3,1
15:35:49.385034,1,3,-5,-34,-4,5,2,1
15:35:49.400027,-1,-4,-3,16,-27,-7,-2,-2
15:35:49.400027,-5,-4,-3,2,-1,-1,-3,-7
15:35:49.421014,0,0,0,-3,-2,1,-1,2
15:35:49.422013,-3,-1,-2,-2,-2,-2,0,-1
15:35:49.437005,1,-1,-2,-3,0,-3,-2,-1
15:35:49.444999,1,-3,-1,-1,-1,-4,-2,1
15:35:49.459989,0,3,-3,-2,-4,0,0,-1
15:35:49.459989,0,-2,-3,4,8,0,-5,-2
15:35:49.480977,-1,-3,-3,3,6,1,-1,-1
15:35:49.481976,-1,-2,0,3,2,2,-4,-2
15:35:49.496967,2,-1,-1,-14,17,-3,-3,-1
15:35:49.504962,-1,0,-1,1,19,2,0,2
15:35:49.519950,-2,0,-2,-2,5,0,-1,-2
15:35:49.519950,1,-2,1,-3,-4,1,0,0
15:35:49.540939,-1,-1,0,-2,-19,-9,-2,1
15:35:49.541936,-2,1,2,1,-4,1,0,0
15:35:49.556929,0,-3,-2,0,2,-3,-6,-2
15:35:49.564925,2,0,-3,-3,0,1,-1,0
15:35:49.579914,-1,-1,2,-2,-3,-3,0,-2
15:35:49.579914,1,-2,-2,-5,1,-1,0,-2
15:35:49.600902,3,1,0,0,3,1,0,-1
15:35:49.601901,1,0,-3,-2,0,-3,0,-1
15:35:49.624885,-2,0,-3,-7,-4,-1,3,0
15:35:49.624885,1,3,1,0,-24,-4,0,1
15:35:49.639875,0,-1,-3,29,13,-4,-3,-4
15:35:49.639875,1,-1,-3,5,-3,0,0,0
15:35:49.660865,0,-3,-1,-1,10,6,-1,-1
15:35:49.661863,-1,0,3,-1,-3,-3,-1,-2
15:35:49.676854,-1,-3,-5,-4,-5,0,-2,-3
15:35:49.684850,1,-2,0,3,-2,0,0,0
15:35:49.699841,0,-2,-3,-2,3,1,-1,-1
15:35:49.700841,-2,-4,-2,0,-3,-3,-1,-2
15:35:49.720828,-1,1,-1,1,0,1,-3,-1
15:35:49.721825,-3,-1,0,-5,-8,1,1,-1
15:35:49.736817,-2,-2,3,1,6,3,0,0
15:35:49.744813,0,0,0,-5,-12,-1,-2,1
15:35:49.759802,0,3,2,-4,-2,4,0,2
15:35:49.759802,1,2,1,9,-28,1,0,0
15:35:49.780792,0,0,1,-3,10,-3,0,-2
15:35:49.781788,-2,0,-1,-66,-17,0,-2,1
15:35:49.797781,-1,-2,-3,10,3,3,0,-1
15:35:49.804777,-2,-1,1,4,11,0,0,0
15:35:49.819767,-2,1,0,-7,-4,-1,-2,-5
15:35:49.819767,2,1,-1,-7,-28,-6,-1,2
15:35:49.840754,-5,-1,-5,2,8,0,-2,-6
15:35:49.841751,-4,-6,-3,-5,-5,-1,-2,-3
15:35:49.857741,-1,-2,-3,-19,-6,-3,1,-2
15:35:49.864739,-2,-1,1,0,-2,-4,-1,-1
15:35:49.879730,-2,0,1,23,4,1,1,-3
15:35:49.880729,3,-1,-1,1,1,6,3,2
15:35:49.900717,-1,-1,0,4,2,0,-2,-3
15:35:49.901716,-2,-3,-1,0,-9,-1,-3,-5
15:35:49.917703,0,-1,-2,1,4,0,-2,0
15:35:49.924701,-3,-1,2,5,9,2,-2,-4
15:35:49.939693,-2,-1,3,-9,-3,-2,-2,-3
15:35:49.947688,1,0,3,28,3,5,0,0
15:35:49.962678,-2,-5,-2,2,7,0,-3,-1
15:35:49.962678,-1,1,0,0,2,1,-3,-2
15:35:49.977666,1,1,2,-3,-3,0,-1,-2
15:35:49.984665,-4,-2,3,0,-4,-1,0,-3
15:35:49.999655,-1,2,-2,-1,1,1,1,-1
15:35:50.006653,1,-2,-2,-1,-5,-1,-1,0
15:35:50.021639,-1,-3,1,-3,-6,0,-1,-3
15:35:50.022641,0,-3,-1,-13,1,2,1,-2
15:35:50.037632,3,1,-2,9,-42,0,1,1
15:35:50.044627,-3,-1,-1,0,-2,-5,-3,1
15:35:50.059619,-2,0,-3,-2,3,2,2,-1
15:35:50.067610,-1,0,-2,-4,-2,0,0,3
15:35:50.081604,0,1,-1,0,0,-2,0,1
15:35:50.082613,-2,-2,-1,-1,-4,0,1,1
15:35:50.097595,5,3,4,-1,2,-2,1,5
15:35:50.104590,-4,-1,2,7,5,-2,1,1
15:35:50.119581,-6,-7,-3,-4,-1,-1,-2,-4
15:35:50.127574,1,0,-3,1,-4,-2,-3,2
15:35:50.141566,-1,-1,0,-1,-8,0,-1,0
15:35:50.142564,-2,-5,-3,-3,7,-3,-3,-2
15:35:50.157557,0,-1,0,0,-2,0,1,-1
15:35:50.164554,-1,-3,-2,-3,-1,-1,-2,-2
15:35:50.179543,-2,-2,0,-3,-5,-1,-2,-4
15:35:50.187539,0,0,1,11,8,2,-1,-2
15:35:50.202527,1,0,-3,9,2,-3,3,-3
15:35:50.202527,1,0,0,-1,4,-1,0,-1
15:35:50.217521,-2,-4,-1,-3,16,1,0,-1
15:35:50.224515,2,1,-3,-5,-32,-8,1,4
15:35:50.239507,-1,-3,0,3,7,0,-2,-3
15:35:50.247506,-3,-3,-4,-3,-6,-2,-2,-3
15:35:50.262489,3,4,1,1,-4,-3,1,3
15:35:50.262489,1,-1,0,1,6,0,-2,1
15:35:50.277483,-3,1,-1,-3,1,-1,-2,1
15:35:50.284478,-1,-3,0,2,-5,-1,2,3
15:35:50.299469,-4,-3,-1,-3,-1,1,-2,-1
15:35:50.307466,1,0,2,8,10,4,-2,1
15:35:50.329450,0,3,-3,-31,-20,-3,0,-1
15:35:50.330449,2,0,-1,0,-1,-2,-2,1
15:35:50.337446,1,-4,1,2,4,3,-2,-4
15:35:50.347440,-1,-2,-2,-7,-8,0,-3,-2
15:35:50.359432,-1,-1,2,6,-41,0,-2,0
15:35:50.367427,-2,-3,-2,1,3,-9,-2,-6
15:35:50.382415,-2,-5,-4,-2,1,-2,-1,-3
15:35:50.382415,1,-1,-1,-7,-1,2,-1,-1
15:35:50.397408,3,0,0,5,-3,-4,-2,-1
15:35:50.411397,0,2,-1,0,1,0,0,5
15:35:50.419394,0,-3,-1,9,11,2,1,1
15:35:50.427388,-4,1,-1,-16,-13,-3,-3,0
15:35:50.442380,-5,-2,0,7,15,1,-3,-5
15:35:50.442380,1,-2,2,-1,0,1,-4,-1
15:35:50.457371,1,-2,-1,0,-3,-1,0,3
15:35:50.469364,-2,-4,2,-4,-4,-2,0,2
15:35:50.479358,-3,0,1,3,20,1,0,-5
15:35:50.487350,-1,-2,-2,-2,-9,-5,-3,0
15:35:50.502341,2,2,-2,-8,4,2,1,2
15:35:50.502341,0,1,0,1,-2,-1,0,-2
15:35:50.525327,-1,0,1,-1,-6,0,-1,-2
15:35:50.525327,-3,-3,-1,-30,-1,-1,-3,-3
15:35:50.539319,-2,3,0,7,4,0,0,1
15:35:50.547316,1,-1,-2,-2,1,-2,0,-1
15:35:50.562306,-2,-1,-2,2,-3,-4,-1,-4
15:35:50.562306,-1,0,2,-2,-6,-1,-1,-2
15:35:50.585293,-4,1,-1,-3,1,1,-4,1
15:35:50.585293,1,1,-2,3,-2,1,-1,0
15:35:50.600283,0,-3,-2,-1,1,-1,0,-3
15:35:50.607278,-2,-1,2,-4,-4,1,-1,-3
15:35:50.622269,2,2,2,-2,-1,6,3,3
15:35:50.623268,1,-2,-1,2,3,-1,-1,-1
15:35:50.637260,2,2,-2,-3,-3,-4,-1,-2
15:35:50.651251,-1,2,1,-3,28,-3,1,3
15:35:50.659245,-1,0,-1,9,-2,-2,-1,-2
15:35:50.667241,-1,0,4,7,10,-4,-3,1
15:35:50.682229,-1,1,-1,-4,-11,-1,-1,-2
15:35:50.683228,-5,-2,-3,1,3,-1,0,-4
15:35:50.697223,1,-1,-1,-3,2,-1,0,2
15:35:50.711214,-1,1,-1,2,3,0,-1,-1
15:35:50.727202,-1,-6,-4,-10,-6,0,-4,-4
15:35:50.728201,0,2,1,0,-1,0,-2,0
15:35:50.742195,-2,0,-2,20,10,-1,0,1
15:35:50.742195,0,-5,-3,0,14,-2,-3,-3
15:35:50.757185,0,1,0,-3,0,-3,0,1
15:35:50.771177,-2,1,-2,0,6,-2,-2,-3
15:35:50.780172,-2,-2,-4,0,5,1,-3,-3
15:35:50.787167,-1,0,0,-5,0,-3,-1,-2
15:35:50.802158,4,-1,-2,-3,-6,-1,0,2
15:35:50.803156,-3,1,0,1,-8,-5,1,-2
15:35:50.817148,0,-3,1,-2,2,-2,-1,-1
15:35:50.825143,0,-1,-4,-1,4,1,-2,-1
15:35:50.840135,-3,0,0,2,0,1,0,-1
15:35:50.847130,-4,-1,3,5,0,-2,-3,-3
15:35:50.862121,-3,-3,-4,-10,-7,-3,-3,0
15:35:50.870115,-2,-3,-2,9,10,-1,-1,-2
15:35:50.885103,2,1,-1,-1,5,2,0,2
15:35:50.885103,-4,1,-1,-13,-61,-3,-2,0
15:35:50.900098,-5,-2,-1,6,9,-3,-5,-3
15:35:50.907092,2,-2,1,-4,5,0,-2,-2
15:35:50.922084,-1,-1,-1,-2,-13,-2,0,1
15:35:50.930076,-1,-2,0,1,3,2,-3,-1
15:35:50.945066,-3,-3,-4,-5,-5,-6,1,-4
15:35:50.945066,-2,-1,-2,1,4,2,1,2
15:35:50.960058,-4,1,-3,-3,0,-2,-3,-2
15:35:50.967055,-1,0,3,1,3,-1,0,0
15:35:50.982046,-3,2,-2,-1,-6,-3,0,2
15:35:50.990042,1,-3,-1,-2,2,2,-2,-5
15:35:51.005029,2,-3,-5,-39,-13,0,-1,-1
15:35:51.005029,-3,-2,0,13,-25,-10,-2,-2
15:35:51.020020,-1,-3,-3,-3,18,-1,-3,-5
15:35:51.028015,-2,-3,-4,0,-8,-4,0,-2
15:35:51.042009,0,-3,-2,-3,-1,1,1,-1
15:35:51.050004,-1,1,0,-1,5,-2,0,-4
15:35:51.064992,1,-1,-6,-11,-4,-2,0,-2
15:35:51.064992,2,-2,1,7,-1,-1,1,1
15:35:51.079986,-1,-4,-1,-8,-2,-2,-3,-2
15:35:51.100972,0,-1,1,5,12,0,0,0
15:35:51.101972,0,0,0,-34,-15,-2,-3,0
15:35:51.109966,0,1,2,9,2,1,0,-2
15:35:51.124954,4,2,5,3,-2,2,2,3
15:35:51.124954,-4,1,-1,2,4,-4,0,-2
15:35:51.139948,-1,-1,2,-1,-2,1,-3,2
15:35:51.146944,4,1,-1,0,-2,2,0,-1
15:35:51.161934,1,-1,2,-2,-1,-5,0,0
15:35:51.169927,-4,-4,-1,-2,-2,1,-1,-2
15:35:51.184918,-1,-1,-2,-1,-6,-3,-3,-2
15:35:51.184918,-3,-1,5,11,-16,-4,0,-1
15:35:51.199911,-2,-3,-1,5,18,7,3,1
15:35:51.206906,-1,-2,-3,-2,5,-4,-1,-1
15:35:51.221896,-1,-5,-3,-1,-31,1,1,-5
15:35:51.229889,1,-2,-1,-2,-2,-3,1,-2
15:35:51.244881,-1,2,-2,-27,-4,-2,1,0
15:35:51.244881,-2,-1,0,3,3,-3,-4,1
15:35:51.259873,0,-1,-2,-1,6,0,-1,-3
15:35:51.266869,-2,0,0,-2,-4,-2,-1,0
15:35:51.281860,1,3,1,-5,1,1,2,1
15:35:51.289856,-1,-1,2,9,3,3,-1,0
15:35:51.304843,1,-2,1,4,9,0,-1,-3
15:35:51.305845,-3,-1,0,-3,-3,-2,-1,-1
15:35:51.319843,-4,-1,-5,-8,-12,-9,-3,-2
15:35:51.326830,-2,0,2,9,-5,-2,1,2
15:35:51.341820,2,-1,-2,18,9,-1,-4,0
15:35:51.356812,0,-2,-3,1,6,-2,-1,-1
15:35:51.364811,0,-1,-2,1,1,1,-4,-3
15:35:51.365809,0,2,0,-1,3,3,1,-1
15:35:51.379800,-2,-1,0,0,-12,-3,-1,-4
15:35:51.386793,-4,-1,-5,3,5,1,-2,-4
15:35:51.401783,0,1,-4,-6,1,0,-2,0
15:35:51.409780,-4,-4,-1,2,6,-1,-2,-3
15:35:51.424771,-1,2,-3,-1,-3,1,1,1
15:35:51.424771,-3,-2,1,-1,-4,0,-1,1
15:35:51.439762,1,1,1,-1,9,6,1,2
15:35:51.447757,-1,3,2,4,-51,-3,-1,0
15:35:51.462748,-3,3,-4,0,12,-4,-2,-6
15:35:51.469743,1,1,-1,-1,2,-4,1,0
15:35:51.484735,-2,3,0,-3,-2,0,-1,0
15:35:51.484735,-1,-2,-1,-22,-19,0,-2,-1
15:35:51.499725,-5,0,-3,8,6,-1,-2,-2
15:35:51.506717,2,3,0,4,-1,4,0,-1
15:35:51.522711,-2,-1,0,2,-1,-5,0,3
15:35:51.529707,-4,-5,-3,1,1,0,-1,-1
15:35:51.544694,0,1,0,-1,-3,-4,-3,1
15:35:51.545695,-3,-2,-2,-3,-2,-1,0,1
15:35:51.559687,0,-2,0,-2,1,1,-2,2
15:35:51.567682,-1,-3,3,-4,6,0,-1,0
15:35:51.582674,-2,3,-1,4,-2,-4,0,-2
15:35:51.589669,0,-2,0,1,5,2,1,-2
15:35:51.604660,0,2,1,0,-4,-2,1,-1
15:35:51.605657,0,-1,-2,-4,-2,-1,-3,0
15:35:51.619650,-3,0,-2,-2,-2,-1,3,-1
15:35:51.626646,-3,1,0,-2,-9,-3,-1,-2
15:35:51.642640,5,-3,0,-1,4,-3,-2,-3
15:35:51.649632,-1,-2,1,20,4,-3,-1,-1
15:35:51.664623,3,1,-1,-3,-4,-4,1,0
15:35:51.672615,-1,2,1,0,-1,-4,-2,-2
15:35:51.679613,-1,-2,-3,0,1,-1,1,-1
15:35:51.687608,-2,0,-2,-3,-9,-2,-1,-1
15:35:51.702599,-2,-4,-2,1,5,1,1,-1
15:35:51.709595,-2,-1,-1,1,5,-2,-1,-1
15:35:51.724585,0,-1,-3,1,-4,-2,2,-1
15:35:51.725588,0,0,0,0,2,2,0,1
15:35:51.739576,-3,-2,2,6,4,1,-2,-1
15:35:51.761559,-4,-4,-6,-13,-2,-1,-4,-3
15:35:51.762563,0,-1,-1,1,3,3,-1,1
15:35:51.769557,-4,-1,-3,-4,-2,-3,0,-1
15:35:51.784548,-1,-1,-3,2,0,0,-2,0
15:35:51.785548,2,-1,-1,2,-2,-1,0,2
15:35:51.799539,-5,-5,-4,-1,14,1,-2,-1
15:35:51.807532,3,1,0,-1,-8,-2,-1,0
15:35:51.822525,-1,0,-2,0,0,-1,-1,0
15:35:51.829520,0,-3,2,7,10,1,1,-2
15:35:51.844508,1,2,-5,-32,-22,-6,-2,1
15:35:51.852506,-2,0,1,-1,6,1,-1,-2
15:35:51.867499,1,-2,0,0,3,-2,2,2
15:35:51.867499,-1,-2,-1,-7,2,1,1,-1
15:35:51.882487,-3,-1,-6,-12,-10,-2,-2,-1
15:35:51.889483,-3,-3,-1,7,3,1,-3,-2
15:35:51.911467,-3,-6,0,-2,-3,-1,-1,1
15:35:51.912468,0,-1,-1,-1,-5,0,1,-2
15:35:51.926457,1,-3,1,-31,-21,-4,0,-3
15:35:51.927458,2,-2,-2,26,3,-1,-2,-3
15:35:51.942450,0,-3,2,15,-38,-6,-4,-3
15:35:51.949446,0,-2,-4,7,12,-4,-1,0
15:35:51.971433,-1,-3,0,-3,-2,-1,0,1
15:35:51.972435,0,-1,-1,-4,-2,4,0,3
15:35:51.987420,-2,0,-1,0,-3,-4,-1,0
15:35:51.987420,0,-1,-3,-3,-3,3,-3,-3
15:35:52.002413,-3,-3,4,0,0,2,1,-3
15:35:52.009409,-1,0,-5,4,-13,-5,-1,-3
15:35:52.024399,-3,3,1,16,18,4,-1,-1
15:35:52.032394,0,1,1,-4,-6,0,0,-1
15:35:52.047383,0,3,-1,-2,2,-1,0,2
15:35:52.048383,-3,-3,1,6,-5,-1,-2,-1
15:35:52.062376,-4,1,-2,16,-54,-5,1,-1
15:35:52.077367,-3,-4,-2,1,0,-1,-3,-1
15:35:52.091359,0,0,-3,1,1,-1,1,-1
15:35:52.092358,-3,0,1,-4,0,-2,-2,-3
15:35:52.107345,-3,-3,-1,-2,-3,-5,1,0
15:35:52.107345,0,1,4,3,0,-3,-2,-2
15:35:52.122339,-5,-1,-3,4,-5,-4,-3,-2
15:35:52.129334,-4,0,1,8,6,2,2,0
15:35:52.151321,-1,0,-1,6,4,-2,1,0
15:35:52.159316,-1,-2,-1,0,-1,-1,0,-1
15:35:52.167311,-4,-3,0,-1,-2,-1,1,1
15:35:52.167311,-1,-1,-4,-1,-9,-3,0,0
15:35:52.182309,1,-1,2,0,3,-3,-2,1
15:35:52.197292,-1,-1,-1,5,-3,-3,-1,-5
15:35:52.206286,-1,-1,-1,-3,1,2,-3,-3
15:35:52.212283,2,-1,2,40,31,-1,0,-1
15:35:52.227271,-3,-3,-5,1,0,-3,-2,0
15:35:52.227271,-4,-4,-4,7,8,1,-3,-2
15:35:52.242265,0,4,0,1,3,0,-1,3
15:35:52.250259,-4,0,-1,-1,-11,-4,2,0
15:35:52.272246,0,-1,-1,-7,0,0,0,-1
15:35:52.272246,1,0,-1,4,2,-1,-1,-2
15:35:52.287236,-2,-1,-2,-4,1,-1,-2,-2
15:35:52.287236,5,1,1,-4,-1,-3,-1,0
15:35:52.302227,-3,0,-1,6,-1,-3,-2,-3
15:35:52.309231,-3,0,-2,3,-5,1,0,-2
