timestamp,emg1,emg2,emg3,emg4,emg5,emg6,emg7,emg8
15:44:15.138997,-3,0,-3,8,16,-3,-2,-3
15:44:15.148989,1,-1,0,11,9,-1,0,0
15:44:15.156985,1,2,-6,1,6,4,1,3
15:44:15.171975,-2,-1,3,35,3,-2,-1,-3
15:44:15.178972,0,-2,-4,-14,-13,-2,-2,-1
15:44:15.193961,0,0,3,4,2,1,1,-1
15:44:15.193961,-2,-1,1,-4,0,4,2,0
15:44:15.215948,-1,0,-3,-6,-7,-1,4,0
15:44:15.216948,1,0,-1,1,1,-6,-7,-3
15:44:15.230938,-4,-3,-1,2,5,-1,-6,-5
15:44:15.238933,-1,0,-1,1,-35,0,6,12
15:44:15.253924,-2,-2,0,-23,22,0,-5,0
15:44:15.253924,-2,-3,-1,13,-3,-5,-7,-2
15:44:15.268914,-3,-3,-1,-1,8,3,0,-2
15:44:15.276913,2,2,0,-6,-5,1,1,4
15:44:15.291904,0,-3,-2,-5,-4,-3,0,-4
15:44:15.298899,-1,-1,-3,-2,-3,-3,-2,-3
15:44:15.313887,0,0,3,9,7,1,-4,-1
15:44:15.313887,-1,0,0,-6,0,1,-1,1
15:44:15.328880,1,-2,-1,-1,1,1,-2,0
15:44:15.335876,2,-1,1,2,6,3,3,2
15:44:15.351866,-4,-3,1,-7,5,2,-1,-3
15:44:15.358862,0,2,2,34,-12,-4,3,0
15:44:15.373852,-1,-3,0,9,9,-1,-4,-3
15:44:15.374851,2,1,-1,-24,0,2,-1,-1
15:44:15.388843,-1,-1,-1,2,-11,1,1,2
15:44:15.396839,0,-1,0,-4,-5,1,0,3
15:44:15.411830,0,-1,-3,0,-3,2,-4,1
15:44:15.418821,0,-1,0,0,7,0,-3,-1
15:44:15.433812,-3,-2,0,-5,-2,1,2,1
15:44:15.434815,1,0,-1,-6,-4,-2,0,-2
15:44:15.448806,-1,0,-2,0,6,3,0,-2
15:44:15.456803,-3,1,1,17,7,-2,-1,1
15:44:15.471788,2,1,-1,-14,-33,-3,-2,2
15:44:15.478787,2,-4,0,4,7,0,-3,-4
15:44:15.493777,-1,0,-7,-12,3,2,-3,0
15:44:15.494778,-1,1,-1,7,-5,1,-2,-1
15:44:15.508768,-1,2,4,10,-3,-5,0,-3
15:44:15.516764,-1,0,-2,0,2,2,-1,-1
15:44:15.531754,-2,0,-2,-2,3,0,0,-2
15:44:15.538747,-2,-1,-1,-1,-4,-2,-1,0
15:44:15.553740,-2,0,-2,22,14,1,0,-1
15:44:15.554738,-1,2,0,22,-47,-3,-1,0
15:44:15.583722,0,-1,-2,3,14,-1,5,2
15:44:15.584718,2,0,0,6,2,-1,-1,-3
15:44:15.591717,-4,0,-1,9,13,0,-1,0
15:44:15.598713,0,0,-3,-1,0,-1,-2,1
15:44:15.613703,3,-1,-3,-6,-2,-1,-2,2
15:44:15.621696,-1,1,0,-4,-3,-1,0,0
15:44:15.628694,1,-3,-1,0,-1,-1,-3,-3
15:44:15.636688,-1,-1,-4,-37,2,4,0,-3
15:44:15.658676,-3,-1,-2,7,3,-3,-1,-1
15:44:15.659673,0,-1,0,-7,-4,0,-1,-1
15:44:15.673667,2,-1,0,2,9,-3,0,2
15:44:15.674666,-1,-1,-1,-33,2,2,2,-2
15:44:15.688655,0,0,-1,6,-3,-1,-1,-2
15:44:15.696649,-3,0,-1,-5,1,-3,2,1
15:44:15.711643,-4,-1,-3,7,-2,-1,-4,-3
15:44:15.718637,-1,-4,-3,-5,-9,-3,-5,-5
15:44:15.733629,-3,-1,0,1,0,-3,-2,2
15:44:15.734628,0,-2,-1,9,-1,-1,-1,3
15:44:15.748618,-1,0,-2,1,-61,-4,2,-2
15:44:15.756615,-2,1,1,3,20,3,-1,-2
15:44:15.771605,0,-1,-2,4,7,1,-1,-2
15:44:15.778598,-2,0,1,-7,1,-1,-3,-3
15:44:15.794592,-2,-2,-1,11,5,-1,-2,0
15:44:15.801587,0,0,0,-4,1,0,-2,-2
15:44:15.816578,-2,-1,0,15,-3,-2,1,0
15:44:15.816578,-3,-1,-1,5,2,-2,1,-1
15:44:15.831568,-1,0,-1,2,0,1,2,0
15:44:15.838562,-1,-1,1,-2,-6,-5,-1,0
15:44:15.853553,0,1,0,0,11,-1,-2,-1
15:44:15.861550,0,-1,-1,8,-4,1,0,1
15:44:15.876540,0,-1,-2,0,-18,-5,-2,-2
15:44:15.877540,0,-1,0,8,12,3,1,5
15:44:15.891531,-2,-4,-1,-3,-4,-2,1,-4
15:44:15.898528,0,-2,-4,5,2,-2,0,-1
15:44:15.914517,-4,0,-2,-3,-14,-4,-1,2
15:44:15.921511,-1,-1,1,0,-2,4,-1,1
15:44:15.936504,-1,-3,-1,-2,0,0,-5,-2
15:44:15.937500,-1,1,-1,-3,-6,-1,2,-1
15:44:15.951494,-1,-1,0,24,44,-4,-2,1
15:44:15.966485,-2,-4,-3,13,8,-4,-2,0
15:44:15.974479,-3,-4,-1,0,6,3,1,-2
15:44:15.981476,-1,2,0,27,0,1,-1,2
15:44:15.996466,0,-2,0,3,1,-3,-1,-1
15:44:15.997465,0,-1,0,2,2,-3,0,-5
15:44:16.011457,0,-1,-4,-5,1,-2,3,-2
15:44:16.018449,0,0,1,2,-13,0,-2,-3
15:44:16.033443,-1,-1,-2,5,4,2,-1,0
15:44:16.041438,1,3,1,4,-20,1,-1,-1
15:44:16.056429,-1,-1,-2,-20,9,-5,-4,-1
15:44:16.057427,-2,-1,2,9,4,2,1,4
15:44:16.071420,-3,-2,0,3,0,0,-2,-3
15:44:16.078415,2,0,0,-6,-1,2,2,1
15:44:16.101401,-3,-1,-2,-2,-2,-3,-1,-1
15:44:16.102401,-1,0,1,-7,-2,-4,-2,2
15:44:16.116392,-2,1,2,16,-50,1,0,0
15:44:16.117391,-2,-1,-4,-24,-2,-2,1,-4
15:44:16.131383,-1,-1,-4,-33,3,6,1,-1
15:44:16.139376,0,1,3,10,1,-1,0,-2
15:44:16.154366,-1,0,1,-3,2,-1,-1,-2
15:44:16.161361,-4,-2,-1,3,3,0,0,-3
15:44:16.184349,-2,2,1,0,-3,-5,2,-1
15:44:16.184349,-3,0,2,0,6,3,-1,2
15:44:16.191346,-1,-1,-2,-1,-10,-1,3,2
15:44:16.199341,-2,-2,-2,-2,1,-2,-1,1
15:44:16.214332,0,0,2,8,8,2,-1,0
15:44:16.221327,2,0,-2,-44,-32,2,1,-1
15:44:16.236318,-6,-3,-4,20,19,-1,-6,-6
15:44:16.237315,-2,2,2,-1,-2,0,0,-1
15:44:16.251308,-2,-3,-1,-2,-5,3,-4,-1
15:44:16.259303,0,1,-1,0,4,-1,1,0
15:44:16.274294,-3,-2,-5,9,8,1,-2,-3
15:44:16.281289,-3,-1,1,1,-9,-2,-1,1
15:44:16.296280,-2,0,-1,-27,3,1,-1,-1
15:44:16.297279,0,-3,-2,-15,12,-1,-1,1
15:44:16.319265,-4,0,0,1,8,-3,-2,-4
15:44:16.319265,-1,2,-2,1,6,-1,-1,-3
15:44:16.334256,0,-4,-3,-7,-6,-3,-4,1
15:44:16.341253,3,-1,0,5,2,-1,0,4
15:44:16.356244,-2,-4,-3,-11,-1,-1,-1,-1
15:44:16.357243,1,2,2,7,-26,-6,0,1
15:44:16.371231,-2,-3,-3,-5,3,1,-1,-2
15:44:16.379228,1,-3,0,13,4,-1,1,-1
15:44:16.394223,-1,-2,-3,-28,-6,-3,2,-2
15:44:16.402214,-3,-2,-1,4,11,2,-2,-2
15:44:16.416206,0,-1,-2,12,21,3,1,-2
15:44:16.417203,0,-2,-1,-10,0,0,-2,-3
15:44:16.431196,2,0,-2,-11,6,3,0,3
15:44:16.439189,1,4,3,4,-1,-1,0,2
15:44:16.454185,-3,-2,-1,-9,-12,-3,-2,-3
15:44:16.461177,0,1,0,5,-3,-1,2,-1
15:44:16.476168,-3,-1,-4,-66,-22,0,-1,-3
15:44:16.477165,-3,-3,-2,17,8,0,-2,-3
15:44:16.491159,0,-2,-3,-1,30,2,2,2
15:44:16.499156,3,2,1,5,6,0,3,0
15:44:16.514145,-2,-1,-2,-3,7,2,0,1
15:44:16.521137,-1,0,1,7,-6,-1,-3,-2
15:44:16.536132,-5,-5,-2,-5,6,-3,-3,-3
15:44:16.537128,0,-4,0,6,-5,-2,0,2
15:44:16.551119,-2,1,0,19,9,3,1,-1
15:44:16.559118,0,-1,1,4,-1,2,1,1
15:44:16.574108,2,0,-2,5,-1,-3,1,0
15:44:16.581101,1,-2,-2,4,-11,-3,2,2
15:44:16.596094,-2,-3,0,3,36,1,-1,-3
15:44:16.597092,0,-1,-1,-4,7,-2,-1,2
15:44:16.611083,-3,0,-3,-3,0,-2,0,5
15:44:16.619081,1,-2,-4,-3,-1,-3,-2,-1
15:44:16.634070,1,-1,-1,-14,-8,0,-1,2
15:44:16.641066,1,-2,2,34,12,3,2,-1
15:44:16.656056,2,0,-5,-8,-1,0,-1,1
15:44:16.657057,-1,1,0,0,4,0,-1,1
15:44:16.671046,-3,-1,-1,-7,-3,1,0,-2
15:44:16.686036,-3,2,-3,7,-20,2,-3,-5
15:44:16.701029,-3,-2,-1,-6,12,0,0,-1
15:44:16.702026,-2,-1,0,-1,-5,-2,-1,-1
15:44:16.717017,-1,1,-2,0,-2,2,2,-1
15:44:16.724015,1,-2,0,1,-5,-5,-3,-3
15:44:16.731009,-5,0,0,15,13,0,0,-1
15:44:16.747001,1,-1,-3,-13,-13,2,-1,-1
15:44:16.753996,-5,-6,-2,5,8,-3,-3,-6
15:44:16.761989,0,-1,1,-2,-2,-1,-1,-2
15:44:16.776983,0,-3,-3,-4,6,-2,-1,-3
15:44:16.783978,4,0,-1,-6,0,-3,-1,-1
15:44:16.798969,-3,-1,1,4,16,-4,-1,0
15:44:16.799967,0,0,1,3,6,1,0,-3
15:44:16.813959,0,1,-1,-41,-17,-5,1,-1
15:44:16.820951,1,1,1,14,7,-2,-4,0
15:44:16.836945,-2,0,-7,6,-4,-8,-3,-2
15:44:16.843941,-2,0,1,4,-2,0,-3,-3
15:44:16.858931,0,0,1,-2,-2,0,2,-1
15:44:16.859930,3,2,0,-3,-4,-2,-1,1
15:44:16.873922,1,1,-3,-3,-23,-3,-2,1
15:44:16.880914,-1,-1,-1,1,13,0,-3,0
15:44:16.896908,-1,2,5,39,3,2,-2,1
15:44:16.911896,0,-3,-8,2,9,4,-2,-1
15:44:16.918894,0,0,3,-1,0,3,2,-4
15:44:16.918894,0,1,2,-11,-1,1,-2,1
15:44:16.933885,1,2,-4,-11,-1,-2,2,-2
15:44:16.941880,1,-3,3,3,24,0,-1,-4
15:44:16.956870,-3,-2,-5,-43,0,0,-1,-4
15:44:16.963866,-2,3,-6,3,-1,-5,-1,-5
15:44:16.978857,-2,-4,3,7,7,-2,1,3
15:44:16.979856,-1,0,-5,-11,-1,0,1,1
15:44:16.993847,-5,-3,-1,3,5,2,-3,-2
15:44:17.001842,4,3,7,-7,26,7,2,-1
15:44:17.016834,0,-4,-6,-45,-39,-2,0,4
15:44:17.023829,1,-4,5,-13,76,1,-5,-2
15:44:17.038819,3,-1,-48,-50,12,-3,0,1
15:44:17.039817,-3,1,3,9,-60,6,1,-2
15:44:17.053810,5,6,24,82,-1,-7,1,3
15:44:17.061805,2,4,-19,16,-62,-7,-1,-1
15:44:17.076796,-4,-6,-28,-121,-128,-5,-1,-4
15:44:17.083792,-12,-12,-23,3,65,-14,-11,-12
15:44:17.098783,3,6,10,8,57,26,7,4
15:44:17.099783,-6,-7,-46,49,94,-26,-8,-9
15:44:17.121765,5,5,3,-46,75,23,5,3
15:44:17.121765,-14,-22,-17,65,82,21,-1,-11
15:44:17.136756,1,10,6,21,-128,-58,-8,-2
15:44:17.143754,-6,-7,-59,67,-109,3,-3,-4
15:44:17.158745,5,18,68,127,127,33,6,4
15:44:17.159742,14,24,29,127,127,73,19,13
15:44:17.173734,-24,-32,2,-128,127,-106,-34,-26
15:44:17.181728,-20,-30,-68,-53,127,24,-5,-10
15:44:17.196722,51,74,-15,-128,-128,106,37,36
15:44:17.203717,-8,-9,-6,127,127,-41,-12,-12
15:44:17.218708,-58,-94,-40,32,127,-37,-38,-40
15:44:17.219705,39,25,-1,-128,-128,-103,23,31
15:44:17.233697,-10,-2,11,25,-43,-24,-20,-10
15:44:17.241695,11,8,59,127,127,127,26,11
15:44:17.256685,28,42,18,47,127,11,1,11
15:44:17.263680,2,1,-55,-128,-128,-9,2,-1
15:44:17.278671,-103,-123,-69,127,127,-73,-69,-74
15:44:17.279669,54,112,45,-53,-128,32,33,20
15:44:17.293663,2,9,27,3,43,-10,-14,-3
15:44:17.301657,19,47,75,90,127,26,18,12
15:44:17.316648,-12,-95,-128,-128,-128,-72,19,-5
15:44:17.323642,-14,-58,20,120,127,68,1,4
15:44:17.338631,41,107,84,-112,-65,-55,9,2
15:44:17.339632,-4,17,-69,-128,-128,43,22,31
15:44:17.353624,-123,-128,-78,63,-3,74,-40,-63
15:44:17.361619,83,127,106,-128,-128,13,23,26
15:44:17.376610,-54,-112,-94,-13,-82,-28,-10,-12
15:44:17.383605,17,-1,-44,-106,-128,-101,-4,8
15:44:17.406590,47,122,126,52,-128,58,1,4
15:44:17.407591,-109,-128,-128,-128,-128,-128,-30,-25
15:44:17.428578,-114,-128,-60,36,127,127,-8,-48
15:44:17.429577,18,-15,-4,-128,-94,-128,-12,8
15:44:17.436573,0,-33,-26,127,127,60,8,8
15:44:17.444567,-34,-128,-128,-101,-128,-71,-9,-2
15:44:17.458559,72,127,108,-9,127,-88,-5,20
15:44:17.459556,-45,-87,-99,127,127,127,21,-13
15:44:17.473550,-25,-128,-64,127,-51,-39,-11,-8
15:44:17.481545,37,75,75,127,-128,30,9,11
15:44:17.496535,-32,-94,-83,-128,20,76,1,-10
15:44:17.503531,-46,-82,-28,17,127,127,1,-20
15:44:17.518523,30,48,69,-10,-128,-89,3,5
15:44:17.519518,15,22,7,-116,21,-79,-2,2
15:44:17.533510,5,39,42,6,-121,-8,-1,3
15:44:17.541508,1,5,33,113,127,-8,5,10
15:44:17.556499,21,40,36,-128,30,56,4,6
15:44:17.563497,-20,-33,-38,-84,110,-37,-5,-10
15:44:17.578485,-47,-127,-76,127,127,48,5,-7
15:44:17.579484,6,22,29,-52,-128,-51,-2,-4
15:44:17.594475,41,69,122,94,-80,-24,9,14
15:44:17.601471,-24,-47,0,99,127,127,6,-12
15:44:17.616462,48,75,36,-128,-128,-128,1,20
15:44:17.623455,-45,-71,-13,82,127,51,-14,-21
15:44:17.639444,37,101,80,-94,-128,-50,0,8
15:44:17.639444,-14,-69,22,57,127,127,10,-2
15:44:17.654435,1,15,50,127,-128,-37,-13,-9
15:44:17.661434,6,4,4,-39,49,5,9,5
15:44:17.676423,-8,-30,-48,-35,0,-37,-4,-3
15:44:17.684416,8,35,17,3,127,8,-4,-5
15:44:17.699407,3,20,-22,-128,6,56,5,3
15:44:17.706405,7,16,44,13,86,34,1,1
15:44:17.714401,-12,-29,-9,127,-41,-1,0,-1
15:44:17.721396,-7,8,31,31,-128,82,-1,-5
15:44:17.736387,2,-3,-34,-110,127,-19,4,9
15:44:17.744386,29,32,69,26,-128,-128,5,19
15:44:17.759373,-40,-57,6,127,87,27,-16,-20
15:44:17.766369,34,53,35,-118,-82,-56,4,14
15:44:17.789352,2,2,4,-56,-128,-86,-5,-1
15:44:17.789352,-9,6,18,-4,-128,-63,-16,-13
15:44:17.796350,-24,-21,-25,-32,127,-59,-22,-22
15:44:17.803346,-28,-48,-8,108,-95,-31,-12,-15
15:44:17.819336,-37,-56,-28,-25,127,30,-8,-23
15:44:17.826331,-6,-19,-17,111,54,17,1,1
15:44:17.849314,4,10,4,89,120,20,0,1
15:44:17.849314,20,12,-10,-128,-128,-69,8,14
15:44:17.856313,2,2,5,-61,127,10,-5,1
15:44:17.864308,-3,-22,-16,-122,-128,-41,-7,-3
15:44:17.879298,19,41,13,94,127,1,4,2
15:44:17.886294,-3,7,16,-84,-128,-48,-4,-2
15:44:17.901285,4,14,2,-104,-128,-56,0,3
15:44:17.902284,0,-19,-27,-20,127,55,2,5
15:44:17.916276,5,-3,-16,-88,-128,-45,-2,4
15:44:17.924270,-68,-109,-71,23,-4,-46,-22,-29
15:44:17.939262,8,10,10,-75,7,-3,-1,1
15:44:17.946257,-13,-53,-37,-48,84,-62,-5,-1
15:44:17.961247,-17,-20,-26,-78,127,-39,-17,-12
15:44:17.962247,-5,1,-5,-115,11,-22,-4,-3
15:44:17.976238,12,23,25,65,4,-5,1,5
15:44:17.984234,-4,-1,24,21,26,9,-2,-4
15:44:17.999224,4,-2,-14,100,82,13,11,9
15:44:18.006219,-1,3,8,-91,11,29,-1,4
15:44:18.021210,3,16,57,127,-128,97,9,0
15:44:18.022208,-1,13,14,28,-117,-17,-8,-4
15:44:18.059187,-17,-35,-18,12,-128,-20,-5,-5
15:44:18.060189,25,43,36,127,127,-18,4,9
15:44:18.066182,2,4,-17,-79,-128,-62,-6,-4
15:44:18.067182,3,19,-6,-128,-46,82,6,2
15:44:18.081173,0,5,-23,-128,-99,-36,-8,-6
15:44:18.082171,11,24,3,-55,-128,-63,-4,2
15:44:18.096163,-12,-7,-3,65,127,34,-1,-9
15:44:18.104156,-5,-37,-22,-86,-128,-31,4,3
15:44:18.126145,-17,-12,11,127,-128,56,-14,-17
15:44:18.127142,-4,-6,-7,127,-128,-37,-6,-6
15:44:18.141136,-6,17,44,127,127,127,7,-10
15:44:18.142136,8,26,-46,-128,-128,-128,-7,0
15:44:18.179109,-3,7,-23,-128,-128,-128,-23,-2
15:44:18.180109,-25,-24,48,127,127,127,12,-15
15:44:18.180109,12,1,-11,-104,-128,-92,3,5
15:44:18.186108,16,18,24,-37,-82,-36,0,6
15:44:18.201098,23,28,7,127,-128,85,11,13
15:44:18.202098,-24,-14,16,27,60,127,-4,-17
15:44:18.216089,9,13,1,-56,76,-20,-1,5
15:44:18.224083,-4,-5,-17,5,89,67,4,0
15:44:18.239075,-2,-11,-4,127,127,-34,-4,0
15:44:18.246071,1,-2,-1,100,127,127,12,1
15:44:18.261061,5,4,0,-44,-120,-36,0,1
15:44:18.262058,1,-1,-17,-53,9,-10,-2,3
15:44:18.276052,0,0,-6,-16,-22,8,5,0
15:44:18.284047,-5,-9,-3,25,127,27,-4,-4
15:44:18.299038,1,3,1,-3,-1,-5,-2,-1
15:44:18.306032,5,5,4,3,1,1,2,4
15:44:18.329019,1,-2,0,0,0,3,-1,-4
15:44:18.336017,0,-1,-2,-6,4,-1,-4,1
15:44:18.351005,3,-1,0,-1,1,-1,-2,0
15:44:18.352005,5,-1,-1,2,6,18,36,5
15:44:18.359001,-6,-2,1,0,0,-11,-9,-7
15:44:18.365995,11,13,7,4,1,3,-16,-40
15:44:18.380987,-83,-13,4,6,12,17,68,-24
15:44:18.381984,-2,-4,4,9,23,59,-1,100
15:44:18.396977,-123,22,12,17,9,26,127,-128
15:44:18.403973,38,-6,-3,-2,12,42,52,100
15:44:18.418964,127,4,7,2,3,62,-128,127
15:44:18.426958,-32,5,-18,-13,-53,-109,127,-128
15:44:18.441947,4,-3,4,-5,18,87,-128,127
15:44:18.441947,-34,-25,-15,4,-7,-13,127,-128
15:44:18.456940,-10,-13,-11,-8,-11,-27,127,-128
15:44:18.471928,-47,-39,-37,-40,-49,-107,-102,-41
15:44:18.478926,-53,-4,11,11,-5,-28,-64,-94
15:44:18.485927,-2,4,-7,-18,6,1,-9,-4
15:44:18.500911,-5,26,60,127,36,31,-3,15
15:44:18.523895,-69,-35,42,98,42,-5,46,-48
15:44:18.524896,9,21,-9,127,-115,-128,-65,-1
15:44:18.524896,-115,-61,-9,127,127,47,8,-108
15:44:18.538889,38,30,-54,-128,-128,-13,-50,33
15:44:18.545887,-31,39,-27,127,-128,-54,7,-14
15:44:18.560874,-128,-68,22,-18,78,-6,58,-128
15:44:18.561872,-98,53,-30,-74,-25,-76,6,2
15:44:18.576866,-128,23,-70,-128,-124,-14,19,-31
15:44:18.583862,-101,3,19,64,94,-4,-4,-44
15:44:18.598852,9,27,26,37,127,37,6,1
15:44:18.606848,-16,-14,-47,44,-128,-37,-8,-6
15:44:18.628834,30,-8,-15,78,127,47,7,17
15:44:18.629833,26,10,-9,12,-117,12,20,-1
15:44:18.635831,45,4,1,127,127,25,-7,66
15:44:18.643824,-38,-16,-14,-128,-58,0,-1,-54
15:44:18.658815,-78,-22,-16,-10,40,-45,-23,-72
15:44:18.666809,80,-3,9,51,127,70,-11,20
15:44:18.681797,-80,-12,-28,-49,115,-64,-17,-62
15:44:18.688793,88,30,23,-78,10,-15,53,127
15:44:18.703786,-14,-7,-21,-104,-112,-21,25,-41
15:44:18.704784,-70,10,22,34,-49,-71,13,0
15:44:18.718778,-3,5,-24,-96,-58,-26,-4,17
15:44:18.726772,39,11,-13,-40,13,-2,4,37
15:44:18.741764,-21,-17,19,65,104,-7,20,-5
15:44:18.748759,3,4,18,-37,106,9,0,-4
15:44:18.763750,-29,-9,-10,80,92,0,-9,34
15:44:18.764747,18,20,42,-49,-127,-7,3,7
15:44:18.778740,-32,-16,-12,-3,-128,-34,-31,-38
15:44:18.786735,-50,-4,10,-14,-128,-5,-16,-49
15:44:18.801726,9,0,2,88,127,20,-52,-1
15:44:18.808722,6,-1,10,66,127,-3,2,15
15:44:18.823713,-12,0,-30,-128,-128,-8,5,-5
15:44:18.824710,-23,-14,-40,-101,100,13,-1,-15
15:44:18.838701,7,-3,2,-57,-55,-31,1,51
15:44:18.846698,19,0,9,-18,-69,-36,-18,7
15:44:18.861690,-9,-6,-36,1,42,-24,-20,-13
15:44:18.868684,2,-2,-54,-128,-128,-10,4,3
15:44:18.891667,12,20,58,127,127,31,2,76
15:44:18.891667,-19,-6,31,127,98,18,42,-24
15:44:18.898666,22,1,5,106,34,8,68,-14
15:44:18.906662,20,-11,21,54,-128,-29,-45,-34
15:44:18.921652,-16,-12,-43,-43,-37,-37,-41,-36
15:44:18.928646,3,0,34,37,-18,-6,-7,12
15:44:18.943638,-8,-1,-36,-102,14,-11,11,4
15:44:18.944635,-18,-13,4,122,-59,-30,-43,-10
15:44:18.958629,-8,-10,-7,22,95,-11,17,-16
15:44:18.966622,5,5,4,-12,-17,-11,17,17
15:44:18.981615,-14,-13,-13,-52,-47,-21,-22,-29
15:44:18.988609,-14,-3,12,34,-36,11,37,-8
15:44:19.003600,-15,-8,-9,-95,42,3,-7,-21
15:44:19.011596,-3,4,-10,-68,19,-11,-15,-4
15:44:19.019591,0,0,15,-64,-76,0,2,-3
15:44:19.026586,6,-1,-7,20,16,1,6,31
15:44:19.041577,-3,-2,0,22,3,-4,-2,-5
15:44:19.048575,15,-2,-6,-6,11,-6,-7,-14
15:44:19.064563,-1,-2,5,-4,5,2,-7,9
15:44:19.071559,11,4,2,-5,-1,3,3,9
15:44:19.078552,-9,-6,13,-2,8,-7,-15,-24
15:44:19.086549,5,0,-15,-128,-128,-2,-1,6
15:44:19.109535,-6,-5,-6,110,13,15,18,-13
15:44:19.109535,-5,-3,-9,-34,-86,-12,-11,-7
15:44:19.123527,-2,0,6,17,10,-6,-16,-8
15:44:19.131522,13,5,1,-10,10,23,34,23
15:44:19.138514,-2,-6,-2,-4,-8,13,0,-2
15:44:19.154505,-19,-8,-2,-3,2,7,0,-15
15:44:19.161503,-3,-3,-4,-4,-8,-3,14,-21
15:44:19.168497,-6,-1,-1,-4,-4,4,5,1
15:44:19.191485,5,3,4,-128,-42,6,6,2
15:44:19.192482,-10,-6,7,96,33,-11,-12,-11
15:44:19.198478,8,2,1,-6,15,6,10,10
15:44:19.206475,1,-1,2,-3,-3,2,5,2
15:44:19.221466,3,0,2,-3,-8,-1,-4,2
15:44:19.228459,0,-1,-3,0,-3,-1,-11,3
15:44:19.244452,0,-3,-3,-4,-6,0,12,4
15:44:19.244452,-10,-9,-4,-1,5,9,-1,-2
15:44:19.259443,-2,-2,-4,-2,8,5,-1,-4
15:44:19.266438,-2,-1,-2,15,-8,12,8,5
15:44:19.281429,-7,-5,-4,13,26,-8,-11,-11
15:44:19.289427,1,-1,2,-4,4,1,0,3
15:44:19.304412,0,-1,-5,-3,-7,-2,1,2
15:44:19.304412,-4,-2,-3,-3,-2,-1,6,-7
15:44:19.318405,3,1,0,0,0,4,-7,2
15:44:19.326399,14,9,7,2,5,9,15,10
15:44:19.341392,-1,-1,1,3,2,-1,-7,-2
15:44:19.349384,-4,-3,1,2,3,5,-6,-2
15:44:19.364376,-7,-3,-1,-4,-3,-5,-4,-8
15:44:19.364376,0,-1,-2,-2,-3,-2,-22,1
15:44:19.386364,-1,-1,-4,-3,-3,2,8,5
15:44:19.387363,-4,-3,0,-6,-1,7,16,2
15:44:19.401354,-3,-2,-2,-3,-1,-2,-4,-2
15:44:19.409349,-2,-3,2,2,3,0,9,-2
15:44:19.424339,0,-2,0,-2,-3,6,21,7
15:44:19.424339,-4,-3,1,-6,-3,-4,-13,-12
15:44:19.439331,5,2,4,7,7,3,16,19
15:44:19.446326,0,-1,-1,-20,-9,-5,-5,-1
15:44:19.461317,0,0,-4,5,7,6,8,12
15:44:19.469311,-2,0,2,-3,-2,3,-6,-1
15:44:19.484300,0,-3,-2,-3,0,0,4,5
15:44:19.484300,-5,-1,0,-3,0,2,0,-5
15:44:19.506290,-1,-1,0,0,0,-4,-2,-1
15:44:19.507290,-4,-1,2,-6,-4,1,-2,-2
15:44:19.521277,-5,-1,-4,-42,-26,2,-1,-2
15:44:19.529272,-6,-2,2,23,7,-3,-3,3
15:44:19.544263,-3,-3,-5,-8,17,-5,-1,-6
15:44:19.544263,-2,-1,1,-24,-21,-1,1,-4
15:44:19.559256,3,1,0,9,5,5,21,9
15:44:19.566252,0,-4,0,-2,1,1,-7,0
15:44:19.581242,-1,0,-2,2,-3,0,-1,-5
15:44:19.589238,-5,-1,0,-3,-4,0,-2,-3
15:44:19.604228,0,-2,-3,-3,2,1,-3,-1
15:44:19.611224,-1,3,3,0,4,6,-1,7
15:44:19.626215,-2,0,1,1,0,0,17,0
15:44:19.627214,0,0,-1,0,4,3,-5,0
15:44:19.641205,-3,-1,-4,-1,-5,-3,0,-3
15:44:19.649198,-1,0,2,1,-2,1,5,-1
15:44:19.664191,3,-2,3,0,1,-2,-4,1
15:44:19.671187,-1,1,-1,2,-1,-2,0,-3
15:44:19.686174,-5,-1,-3,-5,-5,3,-2,-8
15:44:19.687174,-5,-2,-4,-1,-4,-3,-2,-1
15:44:19.701167,-2,-1,-4,-2,0,-4,-4,-4
15:44:19.709164,-5,-3,1,-1,-2,-1,-1,-5
15:44:19.724151,-2,0,-1,-4,-8,-6,-17,0
15:44:19.731148,-3,-2,1,2,7,1,-1,1
15:44:19.746140,-1,-1,-2,-4,-4,-2,-3,-4
15:44:19.747140,-5,-3,1,-1,2,-3,-3,2
15:44:19.761129,3,4,2,4,2,2,-2,0
15:44:19.769126,-3,-4,2,-3,-2,1,-3,0
15:44:19.784117,-3,-3,-4,-3,-6,1,-4,-4
15:44:19.791112,-5,-1,0,-1,-3,-2,-2,0
15:44:19.806103,1,2,2,2,5,9,-21,-3
15:44:19.807103,-3,-1,2,-1,1,-4,-11,-3
15:44:19.822091,-3,-2,-2,-16,5,18,30,8
15:44:19.829089,2,2,1,11,16,17,30,26
15:44:19.844080,4,-3,-4,-34,-13,-1,-5,-9
15:44:19.851074,-3,2,2,-19,-7,8,21,-5
15:44:19.866066,0,0,1,12,6,4,-5,3
15:44:19.867063,0,-1,-1,-2,-3,1,10,4
15:44:19.882057,-1,-1,-3,0,-1,1,1,-3
15:44:19.889053,-1,0,4,2,5,5,-6,3
15:44:19.904043,-1,-1,-3,-7,-5,-1,2,-3
15:44:19.911038,-7,-1,0,-3,1,-1,-3,-7
15:44:19.926028,-1,1,-1,0,2,14,26,2
15:44:19.927028,22,8,3,2,5,19,33,59
15:44:19.942020,-7,-4,0,1,-1,0,-4,-12
15:44:19.949015,-2,-2,1,-5,-2,-1,-10,-5
15:44:19.964006,1,2,1,0,3,2,3,0
15:44:19.970999,-2,-1,-3,0,-3,-2,-9,-7
15:44:19.993987,0,1,-4,-1,3,14,48,7
15:44:19.994988,0,-3,0,-3,-7,-4,-10,-4
15:44:20.000980,-4,-1,-2,-2,-4,3,0,-19
15:44:20.023971,-6,-2,2,-2,-2,-5,-16,-1
15:44:20.024968,-4,-1,-4,-4,-10,-3,0,-5
15:44:20.038959,-3,-1,-2,-2,0,0,-7,-4
15:44:20.045954,-4,-2,0,-1,0,-6,-3,-4
15:44:20.046954,2,-2,2,-4,-4,0,1,4
15:44:20.068941,0,0,0,-1,-1,-8,-1,-3
15:44:20.069937,0,-1,0,-1,-4,-1,1,0
15:44:20.083931,0,0,-2,0,4,11,10,6
15:44:20.098922,-1,-1,1,1,0,1,-12,-6
15:44:20.105917,5,3,4,5,5,-19,-34,15
15:44:20.106917,-2,-2,0,-5,-4,-1,11,-4
15:44:20.121905,-2,-2,-2,-3,-7,1,9,-3
15:44:20.128903,-4,-4,1,-3,-3,-2,7,-1
15:44:20.150888,-3,-2,-3,-2,-6,-4,-5,-3
15:44:20.151889,-3,-2,0,-2,-1,2,-2,-6
15:44:20.166877,-1,-2,-3,0,-3,0,2,1
15:44:20.166877,1,2,1,-3,1,-3,-11,-1
15:44:20.188865,5,4,3,5,7,11,7,6
15:44:20.189865,-5,-3,1,-3,-3,-4,-3,-6
15:44:20.203856,2,1,0,-1,-1,-1,-1,6
15:44:20.211852,-5,-2,-2,0,-2,-2,-6,-14
15:44:20.226841,3,1,1,-2,-3,6,5,8
15:44:20.226841,2,-2,1,0,0,-2,3,-2
15:44:20.241833,0,-2,-3,-4,-1,3,5,-3
15:44:20.248829,-4,0,0,3,-1,-4,1,-3
15:44:20.263819,1,1,2,0,-4,-2,4,3
15:44:20.271812,-1,-5,1,-2,0,1,6,-1
15:44:20.293801,-2,-4,-4,-6,-6,3,-9,-13
15:44:20.294800,-2,-1,2,3,5,-3,-4,-2
15:44:20.301796,-1,-2,-1,0,-3,0,6,-9
15:44:20.308792,3,1,2,-1,-2,-2,-30,3
15:44:20.323782,-1,1,3,2,0,1,-4,-3
15:44:20.331777,-4,-4,0,-1,0,-3,1,0
15:44:20.361756,-3,-3,-1,-1,-1,1,4,3
15:44:20.361756,-1,-1,-1,0,1,0,-3,-2
15:44:20.362758,2,-1,-2,-3,0,1,3,0
15:44:20.368755,-5,-4,-7,-5,-6,-7,-2,-8
15:44:20.383745,-3,-3,2,-3,3,3,-3,-13
15:44:20.391740,0,2,2,0,1,-3,-9,-4
15:44:20.406731,-3,0,-4,1,-3,-5,0,-10
15:44:20.406731,1,4,0,0,3,-2,-13,2
15:44:20.421719,-6,2,0,0,-1,0,1,-4
15:44:20.428718,-2,1,-2,1,1,-4,0,1
15:44:20.443709,0,-6,0,-2,-1,2,-25,2
15:44:20.451703,-5,-2,-2,-4,-1,4,-5,-6
15:44:20.466693,6,2,3,3,6,5,8,4
15:44:20.466693,-2,-1,-1,-1,-6,-8,3,-5
15:44:20.481685,-6,-3,0,0,-2,-5,-4,-7
15:44:20.488677,2,0,-2,0,-1,-1,-3,0
15:44:20.503670,-4,-3,-1,0,-2,-4,-7,-4
15:44:20.511666,0,-2,-6,-3,-4,8,5,-5
15:44:20.526657,11,6,2,1,4,16,25,39
15:44:20.533650,-2,0,-1,-1,-3,-5,-4,-9
15:44:20.548643,-5,-2,1,0,-2,0,-6,-9
15:44:20.549643,0,0,0,0,-1,-1,-4,-6
15:44:20.563633,-2,-1,-2,-1,-4,-4,-3,-4
15:44:20.571629,-3,-1,-1,-1,2,-7,-13,0
15:44:20.586620,2,2,0,3,3,-2,0,0
15:44:20.593613,3,0,0,-1,0,-3,-4,4
15:44:20.608606,4,-3,-1,-4,-7,1,-6,8
15:44:20.609603,4,4,3,2,3,0,13,13
15:44:20.624596,-1,1,2,-3,-3,-2,2,-2
15:44:20.631592,-1,0,2,-3,0,4,-2,-2
15:44:20.646582,-5,-1,1,-1,-3,10,4,5
15:44:20.653575,-1,0,0,-2,-3,-2,-4,-6
15:44:20.668568,-1,-3,-3,-3,-1,-10,-13,1
15:44:20.669568,-6,-1,-1,0,-1,-12,-26,1
15:44:20.684555,-1,2,2,-1,-3,-2,6,2
15:44:20.691555,0,1,0,-2,-1,2,7,-7
15:44:20.706545,-6,-1,-2,-3,-1,-6,-10,-13
15:44:20.713537,4,1,3,4,0,-9,-1,1
15:44:20.728531,0,1,1,1,2,9,7,3
15:44:20.729528,-2,-3,-1,-3,-1,-5,-2,-2
15:44:20.743521,-2,1,0,0,-1,-1,-4,-7
15:44:20.751517,-2,-1,-4,2,3,8,-19,3
15:44:20.766508,-3,1,-4,-2,0,0,1,-5
15:44:20.774505,-4,3,0,1,-3,-4,0,-5
15:44:20.788494,4,2,2,4,2,-9,-16,4
15:44:20.789491,0,0,-1,-2,-1,-2,0,-4
15:44:20.803481,0,-2,-1,-3,2,-2,-9,-5
15:44:20.811480,-1,2,0,17,11,3,0,3
15:44:20.826470,-1,-1,0,0,-16,-7,-9,-6
15:44:20.833466,-1,1,-1,-24,-17,-4,0,-2
15:44:20.848456,-1,-1,-2,13,15,4,-4,-2
15:44:20.849456,3,1,2,8,3,-4,-1,0
15:44:20.864444,1,-1,0,0,0,19,25,7
15:44:20.871450,-3,0,3,0,-4,2,3,-1
15:44:20.886434,-2,-1,1,0,1,0,-2,-2
15:44:20.901424,-3,-1,1,-2,-5,-2,-6,-3
15:44:20.908420,0,1,0,2,3,-8,-21,3
15:44:20.909417,-6,0,-3,0,-5,-5,-2,-10
15:44:20.924410,0,-1,0,4,8,8,3,-4
15:44:20.931406,-1,-3,-3,0,-2,2,3,3
15:44:20.946396,3,1,1,0,-6,-4,-1,0
15:44:20.954389,-1,-2,2,-1,-1,-8,-11,0
15:44:20.968380,-2,-1,-1,-1,-1,1,7,-2
15:44:20.969382,0,0,-2,0,2,6,2,-1
15:44:20.984373,5,0,0,1,-4,3,28,26
15:44:20.991369,0,1,2,9,1,-2,-22,-6
15:44:21.006359,0,-1,2,1,1,-5,1,-1
15:44:21.014355,0,-1,-1,-4,-4,-1,-2,-6
15:44:21.029342,-6,-3,1,8,5,-3,-16,-9
15:44:21.029342,0,1,3,-12,-8,7,5,-2
15:44:21.044333,0,3,3,2,2,0,0,5
15:44:21.051331,-7,-3,0,-2,-3,0,5,-13
15:44:21.066322,-1,3,2,2,7,2,-2,-2
15:44:21.074318,-3,-4,-2,-2,-6,-4,-3,-5
15:44:21.096303,3,0,1,1,2,5,7,9
15:44:21.097302,-4,-1,-1,-1,1,-3,-1,-1
15:44:21.103301,-2,-2,-3,-2,-5,-5,-3,2
15:44:21.111294,5,5,1,2,2,-10,-34,13
15:44:21.126284,0,-1,-2,-2,-2,0,4,-6
15:44:21.134278,-3,-3,0,0,-3,-5,-3,-13
15:44:21.149268,0,0,0,0,2,-2,-12,-1
15:44:21.149268,0,2,-1,-4,3,3,3,2
15:44:21.164260,1,-2,-4,-3,-14,-4,-4,-7
15:44:21.179253,-1,0,-2,-1,5,2,0,0
15:44:21.186247,-4,-3,-1,-3,0,-5,-1,-3
15:44:21.194244,-5,-2,2,-1,-5,-1,-2,-6
15:44:21.209231,-1,-2,-3,-5,-3,7,26,-1
15:44:21.209231,-4,-1,-1,1,-2,-3,-9,-10
15:44:21.224224,-4,-7,-5,-2,0,1,5,4
15:44:21.231218,3,2,-1,0,4,12,19,4
15:44:21.246210,-1,1,-3,0,3,10,-2,-7
15:44:21.254205,-2,-3,-1,3,3,-4,-2,-4
15:44:21.269195,2,-2,0,-1,4,8,3,-5
15:44:21.269195,-1,-3,1,-4,-1,-4,-3,-6
15:44:21.284187,2,1,1,1,1,-4,-4,9
15:44:21.299178,-5,-3,-1,-2,-2,-1,2,-11
15:44:21.306173,-5,-3,-3,-3,-7,-14,-16,-21
15:44:21.314168,-2,-4,-2,-1,-2,-2,9,-7
15:44:21.329156,0,-3,-4,-4,-1,-6,5,1
15:44:21.329156,1,0,-4,2,0,-5,6,3
15:44:21.344149,-1,-3,3,-4,2,4,0,-1
15:44:21.351145,-2,1,-1,-1,0,1,7,-6
15:44:21.366135,0,0,-1,-1,-2,-3,-1,4
15:44:21.374131,-6,0,0,0,-2,-2,-4,-6
15:44:21.389119,-6,-4,-4,-9,-13,-15,-20,-7
15:44:21.389119,0,1,0,5,2,-3,6,1
15:44:21.404112,-2,-2,-4,-3,-4,-4,-1,-7
15:44:21.411108,-2,0,0,0,-2,1,-5,-1
15:44:21.427098,1,1,2,2,2,2,2,2
15:44:21.434094,-1,1,2,-4,-1,2,-3,-5
15:44:21.449085,-6,-4,0,2,1,0,-12,-6
15:44:21.464072,0,0,-1,-2,3,2,-1,1
15:44:21.464072,-2,0,0,0,3,11,6,-5
15:44:21.471068,-2,1,1,0,-3,-3,-16,-5
15:44:21.486062,1,-2,1,1,3,3,-1,-1
15:44:21.494056,-5,1,-2,0,-2,-2,-1,-4
15:44:21.509048,-2,0,-1,1,-2,2,2,3
15:44:21.517041,-3,1,4,1,1,0,4,-4
15:44:21.531034,-3,-3,-2,1,8,-1,0,-3
15:44:21.532031,7,1,1,-7,-11,5,0,0
15:44:21.547028,-3,-1,0,-3,7,9,0,-6
15:44:21.554019,-2,-3,2,21,-32,-8,-7,-4
15:44:21.569010,1,-1,-1,5,17,3,7,2
15:44:21.577005,-3,-1,1,-5,0,0,-10,-6
15:44:21.590996,-1,-3,2,1,1,0,-8,-7
15:44:21.591996,2,1,0,-1,-3,10,13,4
15:44:21.606987,0,0,-1,-3,-4,-4,-15,3
15:44:21.613983,1,1,2,1,2,-5,-10,-5
15:44:21.628973,-3,-5,-2,-2,-2,-3,-5,-7
15:44:21.635971,-2,-2,-1,0,0,0,-1,-1
15:44:21.650959,-1,-1,1,1,0,-2,1,-5
15:44:21.651958,0,-2,0,-2,2,2,8,2
15:44:21.666946,-4,-4,-4,-2,-4,1,5,-3
15:44:21.673945,3,-1,0,-4,0,3,1,5
15:44:21.688933,-1,-1,-4,0,-1,3,24,-3
15:44:21.695931,-4,-2,2,-3,-1,3,-8,-6
15:44:21.710919,2,-1,1,1,-1,-1,10,3
15:44:21.711921,-1,0,1,0,6,3,0,1
15:44:21.733908,-1,-3,-1,-1,-2,-2,-1,0
15:44:21.733908,2,-2,0,2,1,13,28,18
15:44:21.748898,1,1,-3,-11,1,1,-9,-7
15:44:21.756894,3,3,3,-21,-14,1,3,-1
15:44:21.770883,-3,-5,-4,5,6,2,-4,-6
15:44:21.771881,4,2,2,1,0,0,-1,14
15:44:21.786875,-2,-5,-1,1,3,-2,-2,-6
15:44:21.793871,-2,-2,-1,-5,-1,-2,-3,0
15:44:21.808859,-2,5,1,3,0,-4,-1,-1
15:44:21.816855,0,0,-2,0,-6,-6,3,7
15:44:21.831844,-1,-1,-3,-1,2,1,-3,-5
15:44:21.832846,-3,-1,-1,-3,-4,-6,0,0
15:44:21.846838,2,1,-2,1,2,6,4,6
15:44:21.853833,0,-3,-1,-2,2,0,-5,-3
15:44:21.868824,0,0,-1,-1,-1,1,4,6
15:44:21.876818,0,1,-1,-3,0,-2,-9,-4
15:44:21.891809,-4,-1,-1,0,-4,-5,-2,-8
15:44:21.891809,2,3,1,15,10,-6,-25,4
15:44:21.913796,-3,-2,-3,-30,-8,-2,2,-4
15:44:21.914796,-4,-3,-5,9,12,2,-8,-9
15:44:21.928787,0,-1,-2,-1,0,-2,-3,0
15:44:21.936781,-7,-5,-1,-3,-15,-1,-21,-15
15:44:21.951770,1,-5,-2,-3,-4,-6,-13,0
15:44:21.951770,0,0,2,-2,-4,-8,-5,-4
15:44:21.966761,-3,0,-4,-2,-5,-2,-7,-10
15:44:21.973759,1,0,0,1,1,-2,1,0
15:44:21.988746,-4,-1,-2,-1,-2,-13,-38,-9
15:44:21.996745,0,1,2,0,0,-2,1,1
15:44:22.011732,1,-1,1,-1,-5,-2,10,9
15:44:22.011732,-2,-2,0,3,-2,-2,2,1
15:44:22.026726,-1,-1,1,1,-3,-1,0,-4
15:44:22.033722,-3,-5,-2,-1,-2,-3,-8,-6
15:44:22.048718,1,2,-1,-3,0,3,1,0
15:44:22.056708,-1,1,3,1,-2,-7,-1,-1
15:44:22.071695,1,0,-3,-1,-1,-3,-16,1
15:44:22.071695,-2,1,-1,-7,-5,-1,9,-4
15:44:22.086689,4,1,2,6,9,10,13,12
15:44:22.093685,-1,-1,0,-3,1,10,7,-1
15:44:22.108675,-1,-1,0,-4,-4,-1,-4,-4
15:44:22.124666,-2,-2,-1,-3,-7,-3,-4,-2
15:44:22.131658,4,1,2,4,7,1,-3,1
15:44:22.131658,0,-3,-3,-6,-13,-4,-4,-1
15:44:22.146652,-2,0,-1,-1,3,-3,-10,-5
15:44:22.153645,2,0,-2,-6,-4,3,11,8
15:44:22.168636,0,1,1,-1,1,2,-1,0
15:44:22.176633,-1,-2,1,0,1,6,4,-1
15:44:22.198619,0,1,-1,-1,-3,-13,-20,9
15:44:22.199619,-3,-1,1,-1,0,-1,1,4
15:44:22.206613,-3,-3,-4,-5,-5,1,1,-3
15:44:22.213610,0,-1,0,-33,-24,-6,-6,-1
15:44:22.236596,-3,-4,-3,9,11,2,-4,-4
15:44:22.237594,-3,-3,-1,-4,36,5,5,4
15:44:22.251586,-2,-1,-5,-4,0,-6,-5,0
15:44:22.251586,0,2,4,-21,-1,2,-4,1
15:44:22.266578,0,0,-1,10,8,-2,-11,-8
15:44:22.274570,-1,-2,-1,-25,-22,5,38,1
15:44:22.289564,0,0,0,4,2,-1,-4,-4
15:44:22.296558,-1,0,-1,-2,0,-2,2,-1
15:44:22.311549,-1,-2,-3,-3,-4,0,-4,-1
15:44:22.311549,1,-1,0,6,6,10,14,8
15:44:22.326540,-2,0,-1,-3,-2,-7,-15,-6
15:44:22.333532,-4,-3,-3,-6,-3,-6,-3,-5
15:44:22.349525,0,-1,-3,-1,-3,-3,7,-4
15:44:22.356522,-4,0,0,0,-1,7,5,-2
15:44:22.371513,3,-1,3,3,2,-1,14,16
15:44:22.372509,-3,1,1,-3,0,-16,-35,-5
15:44:22.386503,-1,-2,-1,2,1,-1,2,1
15:44:22.394499,-5,-2,-2,-4,-5,-2,-8,-6
15:44:22.409489,5,1,-1,-2,6,6,4,9
15:44:22.416485,-4,-2,2,1,-2,-4,7,-7
15:44:22.431476,-1,-2,-2,2,-5,0,0,2
15:44:22.439467,-3,-1,-2,-12,3,-2,0,0
15:44:22.454458,6,2,1,19,10,0,-3,4
15:44:22.454458,-1,1,-3,-8,-7,0,-9,-4
15:44:22.469452,0,-2,-5,-10,-1,3,13,0
15:44:22.476446,0,1,4,9,3,2,-9,0
15:44:22.491438,1,-1,-1,-4,-3,1,4,-2
15:44:22.499433,-3,-3,-1,-2,-5,0,-1,-2
15:44:22.513424,-1,1,-1,-3,1,6,-8,-1
15:44:22.514422,1,-3,-4,1,-2,-2,0,-2
15:44:22.529415,0,-1,-1,0,2,6,9,-3
15:44:22.536410,3,0,0,4,0,2,14,11
15:44:22.551401,-3,-2,-3,-3,-2,-4,-7,-10
15:44:22.566392,-2,-2,-5,-9,-1,5,-4,-2
15:44:22.573387,-3,-2,4,4,5,-2,-5,-5
15:44:22.574387,5,2,3,10,10,5,6,11
15:44:22.589375,-3,1,-2,-2,-4,-1,-6,-1
15:44:22.596373,-15,-5,-3,-8,-6,-13,-30,-19
15:44:22.611363,5,-1,-3,-1,-4,-2,7,5
15:44:22.619359,-3,2,1,3,0,-1,-2,1
15:44:22.634348,4,1,0,1,0,2,12,15
15:44:22.634348,0,2,-3,-2,3,-3,-3,-3
15:44:22.649340,-2,-1,-4,-10,-2,-2,-10,-4
15:44:22.656336,-2,0,-2,1,2,-4,-8,-4
15:44:22.671329,-1,1,-1,-1,1,4,11,-9
15:44:22.686314,8,2,3,3,3,-3,1,4
15:44:22.694311,3,-1,-3,-5,-12,-8,2,-5
15:44:22.694311,-2,1,-2,2,2,2,1,1
15:44:22.709303,-3,-2,-1,-4,-3,-1,-2,-7
15:44:22.716299,-3,0,-3,-2,-3,2,0,-3
15:44:22.731289,-3,-1,-1,-1,0,-1,-2,-3
15:44:22.739284,0,-2,-4,-2,-1,0,-5,3
15:44:22.754272,-5,-3,-2,-2,-4,-8,13,-2
15:44:22.754272,-2,2,-2,-1,-5,-7,-8,-5
15:44:22.769266,11,1,4,0,4,11,31,11
15:44:22.776262,-5,1,0,0,6,-3,-5,-4
15:44:22.791252,-3,-2,-5,-1,-2,-4,2,-1
15:44:22.814235,-2,-2,0,2,2,5,2,-4
15:44:22.814235,-1,0,-2,-1,0,-3,-20,-4
15:44:22.815237,-6,-5,0,-4,-14,-5,0,-4
15:44:22.829228,3,-1,0,0,1,-1,16,11
15:44:22.851215,-1,-3,1,-4,0,-3,5,0
15:44:22.852214,3,3,3,-7,4,13,4,0
15:44:22.859210,0,-2,-2,9,1,2,4,5
15:44:22.874198,-5,-4,-3,0,3,0,2,0
15:44:22.874198,-3,-3,-1,0,2,-6,-26,-6
15:44:22.889191,-5,-5,-2,-20,-20,0,1,-6
15:44:22.896187,-4,-2,1,7,7,0,-3,-9
15:44:22.911179,-2,-4,-2,-5,-1,-6,-3,0
15:44:22.919172,1,-2,1,1,-1,-5,-6,-3
15:44:22.934162,-6,-2,-3,-2,-2,-3,1,-5
15:44:22.934162,-4,-2,-4,1,-5,-3,-4,-8
15:44:22.956150,-4,-3,0,-4,1,0,-2,-7
15:44:22.957149,0,-3,-1,1,0,0,-2,-2
15:44:22.971138,2,2,-2,-3,1,1,-11,4
15:44:22.979135,-4,-3,1,6,-1,0,0,-3
15:44:22.994124,2,0,3,10,14,3,-2,-4
15:44:22.994124,4,-1,-1,-7,-3,-6,8,10
15:44:23.009117,-1,-2,-1,-2,-2,-1,-1,3
15:44:23.024107,-6,-3,0,0,0,2,-10,-8
15:44:23.039098,-3,1,1,-3,-3,2,3,-1
15:44:23.039098,-1,-3,1,-3,-2,1,-9,-4
15:44:23.054086,5,4,1,-2,-4,-6,6,9
15:44:23.054086,0,-4,-2,-2,-3,-3,-3,-8
15:44:23.069080,1,0,-1,-1,1,5,-10,-6
15:44:23.077073,5,1,4,3,-2,4,13,17
15:44:23.092067,4,1,0,-2,-2,-1,-13,-4
15:44:23.099064,-4,-2,-1,1,0,-2,3,-1
15:44:23.114052,-5,-3,-2,-2,-1,3,-7,-3
15:44:23.114052,-1,-1,-2,0,0,-1,3,0
15:44:23.129042,2,-1,1,1,-1,2,9,2
15:44:23.136036,0,1,2,2,-1,4,-2,3
15:44:23.152026,2,3,1,-1,6,-3,0,4
15:44:23.159024,-4,-3,1,3,8,2,1,-1
15:44:23.174013,-3,-2,-3,-5,-6,6,13,-11
15:44:23.175014,-6,1,2,1,5,1,-9,-10
15:44:23.189005,1,-1,-1,-5,-1,1,-10,-4
15:44:23.196001,-4,-2,0,5,7,-1,1,-8
15:44:23.211989,0,0,-3,-9,-9,-1,-5,-3
15:44:23.218986,-2,-2,2,0,-1,-3,1,3
15:44:23.233977,-1,0,-2,0,4,-6,-16,-2
15:44:23.233977,-4,0,-4,1,-1,5,6,-5
15:44:23.248968,-2,0,-2,4,3,8,2,-1
15:44:23.255964,0,-1,4,1,-2,-3,-6,0
15:44:23.271951,-3,0,0,-4,0,-1,-5,-3
15:44:23.278949,-2,-1,-1,2,5,-7,-26,-3
15:44:23.301932,-2,-1,0,-3,-8,-6,-5,-2
15:44:23.301932,-5,-1,-1,2,5,0,1,-3
15:44:23.308931,4,1,-2,-18,5,4,6,3
15:44:23.316926,-4,-2,4,4,-9,3,-2,-6
15:44:23.331917,0,-1,-2,-4,-2,2,-5,0
15:44:23.346908,-3,-5,0,-2,0,1,-2,-5
15:44:23.353902,1,-2,-1,1,-3,2,8,3
15:44:23.361899,-3,1,1,-2,0,1,-9,-3
15:44:23.368894,-1,-2,-1,1,7,4,2,-3
15:44:23.376889,1,-3,0,1,2,1,-21,8
15:44:23.398875,-3,-2,-4,-1,1,11,15,4
15:44:23.399874,-2,-3,-1,-4,-3,-2,0,0
15:44:23.413866,1,-2,-2,-3,-3,-11,-27,2
15:44:23.421858,-2,0,1,-2,-3,1,1,5
15:44:23.435851,-3,-2,-2,0,-1,-2,-4,-5
15:44:23.436852,-3,2,0,3,9,-1,1,-6
15:44:23.451842,-3,-2,-1,-2,0,-2,-2,-2
15:44:23.458838,-4,-3,-4,-4,-3,-5,0,-3
15:44:23.473829,-1,0,-4,-4,-2,-9,-18,0
15:44:23.481824,-4,-1,-2,-10,0,6,8,-6
15:44:23.496815,-6,-1,0,1,-3,6,-1,-11
15:44:23.496815,-5,-5,-4,-6,-1,-1,-1,-5
15:44:23.511805,-1,3,0,-2,-1,-5,-9,-9
15:44:23.518801,2,1,-2,-2,1,3,2,0
15:44:23.533791,2,1,1,0,0,2,4,-1
15:44:23.541786,-1,0,-1,1,2,1,-1,1
15:44:23.556777,1,-2,-3,-2,1,-3,-3,-3
15:44:23.556777,-4,-2,2,4,-6,0,-2,2
15:44:23.571765,1,1,0,-1,2,-5,-18,0
15:44:23.578764,-5,-1,-1,-3,-1,-5,-5,-8
15:44:23.593754,3,-2,-2,-4,-3,-25,-30,2
15:44:23.601749,6,-2,1,1,-3,4,4,3
15:44:23.616741,-4,-1,-3,-4,-9,-6,-3,-3
15:44:23.616741,1,-1,2,0,7,3,8,14
15:44:23.631731,-5,-2,-4,1,-9,-1,-5,-8
15:44:23.638724,-4,-1,-1,-2,0,-4,-4,-9
15:44:23.653716,-2,-3,-2,-3,-2,1,-3,-1
15:44:23.676703,-5,1,0,-1,2,1,0,-1
15:44:23.677702,0,-1,1,-3,3,6,1,2
15:44:23.677702,-2,-3,-2,-4,-3,-8,-1,1
15:44:23.691694,-4,-7,-3,-2,0,-20,-45,1
15:44:23.706684,-7,1,-1,1,3,0,-3,-4
15:44:23.713679,-2,-1,-3,-3,-4,-1,9,7
15:44:23.721675,-3,0,-1,2,-2,-2,4,-1
15:44:23.736666,2,-1,-1,-1,-4,3,-11,-1
15:44:23.737664,-2,-1,-3,-4,-3,-4,-8,-7
15:44:23.751657,1,-1,-1,0,-2,3,-4,4
15:44:23.758649,-4,-3,-2,0,-1,1,-1,-6
15:44:23.774643,-2,-2,0,-1,0,-20,-45,-1
15:44:23.781638,-4,1,-1,-4,1,4,-1,-11
15:44:23.796626,-1,-4,-1,0,-4,-6,-2,-6
15:44:23.796626,-6,-2,-1,0,-1,-9,-20,-11
15:44:23.811619,-1,0,0,-4,-5,-6,-5,-5
15:44:23.818615,-1,0,-1,-1,4,-2,1,4
15:44:23.834604,-1,-3,-5,-5,-1,4,1,1
15:44:23.841601,-3,1,-3,0,2,-3,6,-8
15:44:23.856588,2,2,1,1,-3,0,-17,1
15:44:23.857590,-6,-3,-1,-1,-6,-1,5,-12
15:44:23.871582,0,2,1,1,-1,-8,-10,5
15:44:23.878575,-4,-3,0,-1,0,-1,-5,-5
15:44:23.894568,0,-1,0,0,3,4,-4,-3
15:44:23.901563,-3,-1,2,0,0,-1,-1,0
15:44:23.916552,-5,-2,1,-4,0,-2,-1,-4
15:44:23.917553,1,4,2,-1,-1,-6,-28,8
15:44:23.931545,1,-4,-1,-3,-3,8,9,0
15:44:23.939541,3,0,1,1,6,0,-6,0
15:44:23.954531,-3,-1,-2,1,0,-4,-4,-7
15:44:23.961526,0,-3,-3,-1,1,0,-1,6
15:44:23.976517,1,2,2,3,-1,-2,-3,-2
15:44:23.977515,4,0,-1,-4,-3,0,11,5
15:44:23.991505,-2,1,-5,-2,0,2,8,1
15:44:23.998503,-3,-4,0,1,-1,2,18,-2
15:44:24.014494,-1,2,-2,0,0,0,-12,2
15:44:24.021489,-3,0,1,-1,3,3,13,2
15:44:24.036480,1,-1,0,1,0,4,6,-2
15:44:24.037480,-2,-4,1,-1,0,2,4,-5
15:44:24.051471,-5,-1,-1,-2,0,-2,-4,-3
15:44:24.059466,-1,2,0,0,-1,-6,-3,-3
15:44:24.074453,-3,-3,-1,-3,-2,-3,-13,-11
15:44:24.081452,-3,-1,-3,-4,0,5,-6,3
15:44:24.096443,-6,-1,-2,-3,-2,-4,-3,-6
15:44:24.097440,0,-4,-1,0,1,8,33,-6
15:44:24.111433,1,2,2,-3,-3,-3,-13,-4
15:44:24.118429,-2,-4,-2,1,-3,1,10,1
15:44:24.134419,-2,-1,-3,0,0,-6,6,3
15:44:24.141415,-5,-6,-4,-3,-2,1,-10,-6
15:44:24.156406,-2,-1,-1,-2,-1,-6,-4,-4
15:44:24.157404,2,2,0,0,1,0,-3,-1
15:44:24.179391,0,-2,-5,-1,-1,4,-1,0
15:44:24.179391,-4,-4,0,0,-3,-6,-16,-4
15:44:24.194382,-4,-1,-2,-1,-2,-5,-45,-8
15:44:24.201378,-5,0,-1,-2,-3,-1,19,8
15:44:24.224362,-2,-3,1,-2,-4,-5,0,-6
15:44:24.224362,4,2,-1,-2,-1,4,11,21
15:44:24.231359,3,0,2,0,5,0,1,6
15:44:24.239354,-5,-5,0,2,-1,2,-3,-1
15:44:24.254342,-1,1,0,3,-2,-3,12,-5
15:44:24.261340,0,1,1,-1,5,1,-25,9
15:44:24.276333,0,-1,-3,-4,-3,-1,2,-1
15:44:24.277331,-3,2,1,0,0,0,5,-7
15:44:24.291321,0,0,1,-2,-1,-2,10,12
15:44:24.299317,-7,-3,-2,-7,-3,-5,-10,-11
15:44:24.314304,-1,-1,1,2,2,0,-3,1
15:44:24.321300,0,0,0,-1,2,-2,0,-1
15:44:24.336293,-5,-2,-3,-2,-1,10,17,-3
15:44:24.344289,1,-1,-2,-2,-1,1,7,6
15:44:24.351285,3,-5,1,2,3,5,14,9
15:44:24.366275,-4,3,1,1,1,-3,6,1
15:44:24.374271,-1,-3,-3,-4,-6,-2,12,6
15:44:24.381266,-3,0,-3,-2,-1,2,-3,-1
15:44:24.404249,3,-2,3,-3,1,1,-5,-2
15:44:24.404249,-5,2,1,-1,1,2,7,-3
15:44:24.426238,0,2,-1,-1,-5,-11,-42,6
15:44:24.427235,-3,0,0,-2,3,0,3,-7
15:44:24.434233,-3,-2,0,-1,-3,-8,0,3
15:44:24.441229,-2,0,1,-1,-1,2,5,7
15:44:24.456220,1,-2,0,-1,1,0,-5,0
15:44:24.464214,1,0,3,1,0,7,5,3
15:44:24.479202,1,-2,0,1,1,-1,-7,-6
15:44:24.479202,0,0,1,-1,0,-3,-11,-1
15:44:24.494196,2,-2,0,3,2,2,1,6
15:44:24.501192,-3,1,3,1,2,-2,-18,3
15:44:24.516182,-4,-1,-2,-2,-2,2,-3,0
15:44:24.524178,-2,-1,2,2,1,-1,-5,-2
15:44:24.539166,1,-1,0,-1,5,4,6,1
15:44:24.539166,-7,-7,-4,-2,-1,-5,-11,-7
15:44:24.554158,2,1,-4,-1,-1,-8,-7,8
15:44:24.561153,-1,-2,2,-4,-2,-1,-5,-1
15:44:24.576144,-3,-2,-4,-1,3,1,0,-1
15:44:24.584140,-1,-1,0,-1,-1,-1,3,-1
15:44:24.599128,-1,2,0,2,0,-4,4,4
15:44:24.599128,0,0,1,3,4,1,8,1
15:44:24.614122,-4,-4,1,-2,0,-2,0,4
15:44:24.621114,-1,-5,-1,-1,-1,-2,5,1
15:44:24.636105,3,2,3,4,3,2,13,0
15:44:24.644103,-2,1,2,-1,0,1,6,-2
15:44:24.659094,0,1,2,0,0,-6,0,3
15:44:24.660094,-4,-2,-3,-1,-2,-11,-36,-4
15:44:24.674084,-1,0,0,-2,1,0,2,-6
15:44:24.681078,0,-3,-2,1,3,2,3,0
15:44:24.704063,4,0,1,-1,0,-6,-2,6
15:44:24.705065,-2,0,1,-2,-1,0,-1,-2
15:44:24.719057,-2,-2,-5,-1,-2,4,5,1
15:44:24.720056,0,1,0,-1,0,0,-2,3
15:44:24.742042,-1,-1,-1,-1,-1,8,47,-1
15:44:24.742042,-3,1,2,2,4,1,-13,-1
15:44:24.757033,0,-2,-3,-4,0,8,7,-1
15:44:24.772021,0,0,-2,-1,2,6,13,4
15:44:24.779017,-4,1,-3,-4,-2,-4,-4,-6
15:44:24.780019,1,3,-1,-3,1,2,3,-5
15:44:24.794010,1,-3,2,-1,2,-2,3,0
15:44:24.801006,-4,0,0,-2,0,0,4,-5
15:44:24.815997,-1,0,-2,0,3,4,-4,-3
15:44:24.823991,-6,-7,-1,-3,-3,-9,-33,-9
15:44:24.838981,0,-1,1,-2,-2,0,14,2
15:44:24.838981,3,2,-1,0,1,-3,-1,2
15:44:24.853973,-1,0,-1,-1,-1,1,-2,-4
15:44:24.860968,2,0,0,-1,3,7,12,9
15:44:24.876957,-1,-2,0,-1,-4,-5,-5,-7
15:44:24.883954,0,2,2,2,3,4,10,12
15:44:24.898945,-3,-1,-3,0,3,5,34,-10
15:44:24.898945,-1,-4,-4,-2,-3,2,7,-3
15:44:24.913936,0,2,0,1,5,-3,-9,0
15:44:24.921929,-5,-2,1,-2,0,6,3,-2
15:44:24.936919,0,-2,0,-3,-1,4,8,-6
15:44:24.943917,1,-2,-1,-3,2,8,12,17
15:44:24.958908,0,-2,-1,0,-1,0,12,17
15:44:24.959905,3,-1,-3,-5,-2,-1,-6,-9
15:44:24.981892,-2,-1,1,0,-3,2,15,-4
15:44:24.981892,2,0,2,-1,-1,1,0,0
15:44:24.996882,-2,0,1,-3,-2,-3,0,-1
15:44:25.011875,-2,-1,-1,-1,1,-1,1,0
15:44:25.018871,0,3,-2,-1,0,1,-4,1
15:44:25.019870,2,0,4,1,1,2,-2,-1
15:44:25.033861,-6,-2,-1,-2,-4,-3,-5,4
15:44:25.041856,0,0,1,-1,-1,-2,-2,4
15:44:25.063843,2,0,-2,0,-2,-3,-5,-1
15:44:25.064841,-5,-1,0,-3,-1,-10,-30,-5
15:44:25.078833,3,1,0,1,1,-1,-1,-1
15:44:25.079835,4,4,1,1,-1,2,6,12
15:44:25.093824,-1,1,0,-1,-3,-1,-2,-3
15:44:25.101816,0,0,3,0,-1,-6,-12,-7
15:44:25.116812,-1,-3,-3,-3,0,-2,-4,0
15:44:25.123805,-2,0,2,0,1,-2,-4,-6
15:44:25.138796,2,0,4,-1,-1,3,0,3
15:44:25.139794,-3,-2,0,-3,-2,-3,-21,1
