timestamp,emg1,emg2,emg3,emg4,emg5,emg6,emg7,emg8
15:37:42.970432,0,-1,-1,10,-3,-1,0,1
15:37:42.980424,-1,-2,-2,-22,-9,-1,-1,0
15:37:42.980424,-1,0,1,1,7,1,-1,-1
15:37:42.996415,-2,0,-3,-3,-10,-1,2,-1
15:37:43.003411,-3,-1,-2,0,-2,0,0,0
15:37:43.017403,1,-4,0,-3,-2,0,-5,4
15:37:43.024399,0,0,-1,-3,0,0,2,-1
15:37:43.039391,-1,-2,-1,-2,-6,-3,-2,1
15:37:43.040387,0,0,0,-3,5,2,0,1
15:37:43.054381,1,-4,-1,18,9,2,1,-2
15:37:43.077364,1,-2,-1,-4,-2,1,3,2
15:37:43.078364,-1,1,1,2,-6,-1,1,2
15:37:43.084364,-1,0,-2,3,0,-3,1,0
15:37:43.099364,-2,-1,1,3,4,1,-2,-2
15:37:43.100350,-1,1,-3,-5,-2,-1,-2,0
15:37:43.115341,1,1,1,-1,-3,-2,-4,0
15:37:43.122336,3,-1,-1,1,-2,2,1,1
15:37:43.137326,0,-2,0,3,3,-1,0,-5
15:37:43.145323,3,-1,-4,-17,-18,2,0,-1
15:37:43.160313,2,-2,-1,5,3,-3,-3,1
15:37:43.160313,-1,1,0,1,1,2,1,0
15:37:43.189297,-2,1,-2,3,-5,-4,0,1
15:37:43.190295,-1,-1,1,-2,5,0,0,-2
15:37:43.197290,-1,-3,0,-5,-5,0,-2,1
15:37:43.204290,-3,0,-3,-6,-1,0,-1,1
15:37:43.219281,-1,-1,4,5,4,-2,0,-3
15:37:43.220276,-1,-2,-2,10,10,-1,0,-4
15:37:43.235267,-3,-1,2,2,-12,-1,0,0
15:37:43.242262,0,-1,-4,-2,1,-1,-1,-2
15:37:43.257252,1,-2,0,8,-1,2,-1,2
15:37:43.272243,-4,-4,1,0,4,2,-1,-3
15:37:43.280239,-1,-1,0,10,0,4,1,2
15:37:43.280239,-2,-3,2,3,-4,-3,1,1
15:37:43.295230,-2,-3,-1,-3,-1,-5,-3,2
15:37:43.302226,1,0,-1,-3,-2,-5,0,2
15:37:43.317215,0,-2,0,4,11,-2,-1,-3
15:37:43.325211,-1,-2,-1,0,-9,-2,-3,3
15:37:43.339207,-1,-2,-1,-5,4,-2,2,0
15:37:43.340201,-2,3,1,3,-1,-3,0,0
15:37:43.356191,3,0,-1,-3,0,-1,1,-1
15:37:43.371182,-3,-3,1,0,-1,0,-1,-4
15:37:43.382176,0,-2,-3,-4,-5,0,0,-4
15:37:43.385176,0,0,2,0,4,0,0,0
15:37:43.399167,-1,-1,-4,-21,-20,-4,-1,-2
15:37:43.401164,-3,2,2,9,9,2,1,-1
15:37:43.415156,1,-1,0,-13,-10,0,-1,0
15:37:43.422151,-2,-1,2,3,0,-1,0,0
15:37:43.437140,1,-3,0,-5,-6,1,-1,2
15:37:43.445136,0,1,-1,1,0,-2,-3,0
15:37:43.467122,3,-1,-1,-3,-3,0,-2,-3
15:37:43.467122,-3,-1,2,2,1,-1,-1,0
15:37:43.475118,0,1,-1,-3,-7,-4,-3,-4
15:37:43.490108,-3,0,-2,-15,1,3,-1,0
15:37:43.497104,-4,-4,0,12,12,2,1,-3
15:37:43.505099,1,-2,-1,0,-4,1,0,0
15:37:43.520091,-3,-1,-5,2,3,-1,-1,-4
15:37:43.527085,0,-2,-1,-1,1,-1,0,0
15:37:43.535080,0,-1,0,-4,-5,-2,-3,-1
15:37:43.550072,0,1,0,1,3,1,2,-2
15:37:43.557080,-3,0,-5,0,-7,-2,1,0
15:37:43.565065,0,1,-1,-19,-6,-1,-1,-1
15:37:43.580053,1,-2,-3,-1,-3,-4,-2,-1
15:37:43.581056,3,-1,1,-4,-12,-2,-3,0
15:37:43.595044,1,-2,0,3,0,-2,-4,1
15:37:43.602040,2,-2,-2,-2,2,2,-3,-1
15:37:43.618029,-2,0,-3,-5,-4,-1,1,-1
15:37:43.625024,-2,-1,-1,0,4,0,0,1
15:37:43.639016,1,-1,-2,-4,1,3,-2,-2
15:37:43.640015,-1,0,-1,-3,-7,-4,0,0
15:37:43.655005,-4,-2,-3,-27,-7,-2,-2,-2
15:37:43.662002,0,0,0,7,6,0,1,1
15:37:43.677991,0,0,-2,-4,-5,-2,-1,0
15:37:43.684987,-4,-2,-2,-5,-2,-3,0,-1
15:37:43.699978,-3,0,-2,0,-7,0,-6,-1
15:37:43.699978,0,-1,-3,-19,1,-1,-2,-4
15:37:43.714970,-3,0,-3,6,6,2,1,-3
15:37:43.721965,1,-2,-3,7,0,-2,-2,-1
15:37:43.736998,1,-1,-1,0,-2,1,1,1
15:37:43.744951,-1,-1,-3,-14,-6,-1,-4,-3
15:37:43.759941,-3,1,-1,4,0,0,-1,-3
15:37:43.760942,2,0,2,1,2,1,-1,2
15:37:43.774931,1,0,1,3,4,1,3,-1
15:37:43.782001,0,-1,-1,0,-6,-2,-1,0
15:37:43.804912,1,-2,-3,-1,3,2,0,1
15:37:43.804912,-1,-2,-2,-11,-3,-4,-2,-3
15:37:43.819903,-4,-4,-3,3,7,-1,-2,-1
15:37:43.827899,0,-2,-5,-16,-1,-1,-4,-1
15:37:43.843890,0,-1,1,4,0,-4,-2,1
15:37:43.843890,0,-2,1,-18,-12,-3,-1,-1
15:37:43.856882,3,0,-1,4,6,2,-3,-3
15:37:43.864875,0,0,0,3,4,0,-3,-1
15:37:43.879866,2,4,-2,-3,-1,1,-1,0
15:37:43.887862,2,0,2,-1,-3,-4,-2,-1
15:37:43.909849,0,-1,-1,3,1,-1,2,3
15:37:43.910849,1,-4,-2,-3,-5,-6,0,-3
15:37:43.916845,-1,-1,0,4,7,-3,2,0
15:37:43.924838,2,-1,0,10,-1,-1,-2,-5
15:37:43.939829,-1,-2,0,4,5,0,0,-1
15:37:43.947824,-2,-1,0,-2,-5,-2,0,1
15:37:43.961825,1,0,3,18,0,-4,-1,0
15:37:43.962815,-4,-3,-1,-1,1,-4,-1,-5
15:37:43.977806,1,-2,-1,-3,-1,0,0,1
15:37:43.992798,-3,-1,1,-3,-4,-1,1,-1
15:37:43.999792,-2,1,0,-2,4,0,0,-2
15:37:44.007787,-1,1,0,0,-4,-2,0,0
15:37:44.021781,-4,2,-3,-4,-11,0,2,0
15:37:44.022777,-2,0,-2,3,-1,-2,-1,-1
15:37:44.037769,-1,-3,2,14,9,5,-2,-3
15:37:44.044764,0,-2,-3,-9,-13,0,-1,-1
15:37:44.059755,-2,0,-1,1,4,1,-2,-1
15:37:44.067749,1,-1,0,-3,-1,0,-2,-3
15:37:44.081743,-1,0,-1,-2,-1,0,-3,0
15:37:44.082740,2,-1,1,2,2,-3,1,-1
15:37:44.097730,-1,-3,-3,5,-2,0,-1,0
15:37:44.104727,-1,0,0,6,0,-4,-2,-2
15:37:44.119717,-1,0,-3,5,-1,0,-2,-1
15:37:44.127713,0,-2,-2,-4,-7,-3,-1,0
15:37:44.141704,-2,0,0,-2,-3,1,-1,1
15:37:44.143703,-1,-3,-5,-2,0,-2,-1,-4
15:37:44.156698,-1,0,0,-1,-3,-2,0,-2
15:37:44.164690,-3,-1,-3,-5,-4,-1,1,-1
15:37:44.186678,-3,-1,-3,-24,-9,3,-1,-2
15:37:44.187675,-4,0,-1,2,-4,-5,-3,-1
15:37:44.201669,0,-1,-2,-4,-2,1,1,2
15:37:44.202665,-1,-1,-4,2,1,2,0,-2
15:37:44.217660,-4,-1,1,-4,-1,-2,1,-3
15:37:44.224652,2,2,5,3,1,1,0,1
15:37:44.239650,-2,-1,-2,-2,-1,-3,-2,-2
15:37:44.247645,-3,-3,0,-1,0,0,-1,0
15:37:44.261632,0,-3,-1,-2,1,-3,-1,0
15:37:44.262630,0,-2,-1,-4,-3,-3,-2,0
15:37:44.277632,-4,-1,0,4,8,1,-1,0
15:37:44.284644,-2,-1,-3,3,-5,-1,-1,-2
15:37:44.299608,1,-1,-1,-20,-9,-2,1,2
15:37:44.307603,-4,0,0,5,1,0,-3,-1
15:37:44.321596,1,0,-1,-4,2,1,-2,0
15:37:44.322592,-1,-3,1,8,-10,-4,0,-2
15:37:44.344580,0,1,0,-1,-3,-6,-2,-4
15:37:44.345578,0,-2,0,-1,0,1,0,-3
15:37:44.360569,-4,-2,0,0,0,0,-2,-1
15:37:44.367564,-2,-4,-3,-2,-1,-3,-1,-2
15:37:44.382555,-4,0,-3,5,-6,0,1,-2
15:37:44.383558,-3,0,-2,5,4,-5,-1,-1
15:37:44.397548,-2,0,-2,-5,4,-1,0,-2
15:37:44.404544,2,-2,-1,-4,-5,1,-3,1
15:37:44.420533,3,-1,0,2,4,-2,-1,0
15:37:44.427528,-1,-4,-1,4,4,2,0,-2
15:37:44.442521,-1,-2,3,-5,4,3,-1,1
15:37:44.443518,2,-1,-3,0,-4,-4,-2,0
15:37:44.457511,-4,0,-1,-1,9,0,-1,-1
15:37:44.465506,-1,0,-2,-3,-1,-3,1,-2
15:37:44.480495,-3,0,1,0,2,2,0,-1
15:37:44.487493,-1,0,0,0,-7,-5,-2,-2
15:37:44.502484,0,0,0,2,4,1,-1,1
15:37:44.503484,4,1,-1,2,-3,0,0,4
15:37:44.517474,-1,-5,-4,-28,-11,-1,-3,2
15:37:44.525469,2,-1,0,7,8,-1,-3,-4
15:37:44.540460,1,0,-3,-1,-8,0,2,0
15:37:44.547456,-3,1,-4,-1,-2,0,-3,-5
15:37:44.562448,1,-1,-2,2,1,0,-3,-2
15:37:44.563442,1,2,0,4,10,0,2,-1
15:37:44.577435,-3,1,-2,-7,-6,-3,-1,-2
15:37:44.585433,-1,-3,-3,-3,-1,-1,-3,0
15:37:44.600420,-1,1,0,1,-2,0,2,-3
15:37:44.607418,2,-2,-1,2,-2,3,0,-3
15:37:44.630401,-4,1,0,3,7,4,-2,-1
15:37:44.630401,-4,0,-4,-30,-18,-3,0,-1
15:37:44.637400,0,-5,-1,3,2,0,1,-1
15:37:44.645394,0,0,0,0,3,2,-1,-3
15:37:44.660383,-1,0,-1,4,-12,-7,-2,-2
15:37:44.667378,2,0,-3,0,6,1,1,-2
15:37:44.682368,1,-3,0,1,-2,-1,0,2
15:37:44.683368,-4,2,-4,-9,-3,-2,-2,-1
15:37:44.697362,0,-4,-4,0,-3,0,1,-2
15:37:44.706356,0,0,0,9,9,0,-2,-1
15:37:44.720349,-1,-3,-2,-22,-17,-6,-1,-3
15:37:44.727342,0,-1,-1,5,2,-2,-3,0
15:37:44.742335,-1,0,-2,-1,-6,0,0,1
15:37:44.743332,-1,-4,-3,-2,2,0,1,-2
15:37:44.757324,0,-2,-1,-4,3,-2,-1,-1
15:37:44.765321,0,1,0,2,0,-2,-3,-1
15:37:44.780311,2,1,2,-1,0,0,-2,0
15:37:44.787307,0,0,0,-1,-4,-1,-1,0
15:37:44.802294,-3,-5,-5,1,1,0,-4,-2
15:37:44.810289,1,-1,1,-1,-1,-2,-3,0
15:37:44.825281,0,1,-3,-2,-1,-1,0,0
15:37:44.825281,-1,-3,1,0,2,0,4,-3
15:37:44.840271,-1,-1,-5,-21,-16,-3,-3,-3
15:37:44.847266,-3,-3,-1,0,5,-2,-2,-4
15:37:44.862260,-1,-1,0,4,0,-1,-2,1
15:37:44.870253,-2,-3,-3,-6,-2,-2,-4,1
15:37:44.885243,0,1,2,1,-4,-4,0,-1
15:37:44.885243,-5,-2,-2,0,3,-1,1,-4
15:37:44.900237,2,-2,0,-3,-3,-1,-1,3
15:37:44.907230,0,-1,-3,-1,-4,3,0,-2
15:37:44.922224,-2,-3,1,0,1,-3,0,0
15:37:44.937210,2,0,-3,-3,-3,-2,0,-3
15:37:44.945206,-4,-4,0,13,4,1,-1,-1
15:37:44.945206,-4,0,-1,3,-3,-2,-1,-1
15:37:44.960196,-1,-3,0,-2,-3,0,-1,0
15:37:44.967194,0,1,-4,-3,-3,-1,-5,-1
15:37:44.982186,-2,-2,0,2,9,2,-2,-1
15:37:44.990178,-3,-4,-3,-2,-9,-2,-1,-2
15:37:45.005170,2,2,0,-5,-6,1,-1,-1
15:37:45.005170,3,-1,0,0,3,0,1,0
15:37:45.020160,-5,-6,-2,-2,1,-2,-4,-1
15:37:45.027155,-3,-1,-2,14,5,0,2,-1
15:37:45.043145,1,-2,2,2,-3,-1,1,-1
15:37:45.050144,-1,-1,0,-3,-7,-1,-3,-1
15:37:45.065136,1,-1,-1,-2,-3,-1,1,0
15:37:45.065136,-1,1,-3,-3,-5,-1,2,-2
15:37:45.080124,-1,2,-4,-8,-6,1,-2,1
15:37:45.087118,0,0,0,3,4,1,-4,-2
15:37:45.102112,-1,2,0,-6,-13,0,-2,1
15:37:45.110106,0,0,-1,0,1,0,0,2
15:37:45.125097,-2,-2,-1,19,6,0,3,3
15:37:45.133095,0,-1,-5,-6,-6,-3,0,1
15:37:45.140088,-2,-2,0,7,1,-3,0,0
15:37:45.155078,-4,1,-1,-1,4,0,-1,-3
15:37:45.163074,2,1,-3,-4,-9,-2,-2,1
15:37:45.170070,-3,-1,-1,1,1,3,0,-1
15:37:45.185060,-2,2,3,-5,-10,1,2,2
15:37:45.186059,-4,-3,-1,1,-2,3,-2,-3
15:37:45.200051,-1,-2,-1,-3,0,-1,-3,-3
15:37:45.215041,0,2,-2,2,-4,0,-4,2
15:37:45.223036,1,-3,-3,1,5,2,-3,0
15:37:45.230031,0,-3,-2,0,-6,-2,1,1
15:37:45.253015,2,-1,-2,-3,-1,1,2,1
15:37:45.253015,-1,-1,-1,1,2,0,0,0
15:37:45.260011,-3,1,1,16,1,-2,-3,-3
15:37:45.268009,-3,0,-2,1,-3,-3,-1,-1
15:37:45.282999,-1,-3,-1,-1,0,-2,-2,-1
15:37:45.289995,-1,0,-2,-1,-1,2,0,-2
15:37:45.304986,-1,0,0,2,-6,-3,-2,-1
15:37:45.305985,1,1,-3,-3,1,-5,-2,-3
15:37:45.319974,1,2,-2,-13,-10,-5,0,0
15:37:45.327969,-3,-3,-2,3,3,-3,-1,-3
15:37:45.342962,-3,0,2,2,4,1,1,-2
15:37:45.349958,-1,-2,-4,0,-4,-1,-1,0
15:37:45.364946,-1,0,-2,2,4,1,1,-2
15:37:45.365947,-2,0,0,-1,-3,1,-1,-1
15:37:45.379937,-1,-3,0,1,1,4,-1,3
15:37:45.387932,-1,-2,-6,-3,-2,-1,-1,0
15:37:45.402922,-3,-3,1,-1,-4,1,-1,-2
15:37:45.409918,-1,-1,-3,1,-4,-1,-1,-2
15:37:45.424908,4,0,-2,3,5,-1,1,1
15:37:45.425909,-1,0,0,3,4,1,0,-3
15:37:45.439899,1,-4,0,-3,-15,-1,-4,0
15:37:45.447896,-1,1,-3,1,-5,-2,-1,-3
15:37:45.462884,-2,-3,-1,-3,4,2,-4,-1
15:37:45.469881,-1,1,1,-20,-8,-1,-1,2
15:37:45.484871,-3,-3,-3,9,6,-1,-1,-4
15:37:45.485870,-2,-1,-1,-2,-1,-3,-3,0
15:37:45.499863,-2,-3,-1,-2,0,-4,-1,0
15:37:45.507859,-2,-1,1,3,-5,-3,1,-2
15:37:45.522851,-3,-2,-4,0,0,-2,-3,-4
15:37:45.529844,1,0,1,1,0,3,-2,-2
15:37:45.544834,-2,-2,-3,-3,-4,-4,-1,-3
15:37:45.545836,-1,0,-1,-11,2,1,0,-4
15:37:45.567820,1,1,0,10,5,1,0,1
15:37:45.567820,1,0,0,7,1,-1,0,2
15:37:45.582811,-2,-1,1,2,-1,-2,-3,-5
15:37:45.589807,-2,-3,-2,-2,-1,-1,0,-1
15:37:45.604800,0,0,1,-2,-5,-1,-1,2
15:37:45.605799,-3,-1,-2,-1,0,-1,-3,-3
15:37:45.627783,0,1,4,1,5,6,2,3
15:37:45.627783,0,0,0,-16,-14,-3,-3,0
15:37:45.642782,2,-3,1,19,13,3,0,0
15:37:45.649769,-1,-1,-3,-17,-8,-2,0,-1
15:37:45.672755,-1,-3,2,1,1,-1,-1,0
15:37:45.672755,3,2,-6,2,1,5,2,1
15:37:45.680749,-5,-2,-2,1,-4,0,-3,-4
15:37:45.687745,2,2,1,0,-11,1,1,1
15:37:45.702739,-1,-1,-3,-25,-3,-1,-2,0
15:37:45.709732,2,-4,-2,16,12,0,1,1
15:37:45.725724,-6,-5,-3,8,-5,-1,-4,-3
15:37:45.732720,-4,1,1,4,4,-5,-3,-1
15:37:45.754706,-1,-3,-2,-3,-1,1,-1,-4
15:37:45.755706,-1,1,-1,-2,-3,0,-1,0
15:37:45.762699,-2,0,0,2,5,2,-4,0
15:37:45.769697,0,0,-1,7,-1,-4,0,1
15:37:45.784686,0,2,-1,-11,-5,1,2,3
15:37:45.792683,-1,1,-1,2,9,2,0,-2
15:37:45.807671,0,3,1,8,14,10,4,5
15:37:45.807671,-2,-1,-4,16,1,-5,-5,4
15:37:45.822665,0,1,-3,-4,-4,-3,-1,-3
15:37:45.830660,-1,0,-2,-1,1,-1,0,-1
15:37:45.844649,1,-2,1,2,-7,-2,-2,-3
15:37:45.852646,-3,-2,0,-3,-2,-1,-2,-3
15:37:45.867636,-3,-2,3,3,-3,0,-2,0
15:37:45.867636,0,0,-1,0,-2,-2,1,-1
15:37:45.882628,1,1,-2,-1,0,2,0,1
15:37:45.889620,-2,-3,-2,2,-2,0,-3,-3
15:37:45.905613,0,1,-2,-1,9,-2,-3,-1
15:37:45.912609,-1,0,-2,-11,-8,-3,-4,-1
15:37:45.927600,-3,1,-3,3,2,-2,-2,-4
15:37:45.934593,0,-3,-1,3,9,1,1,0
15:37:45.942590,-1,2,1,3,4,2,3,1
15:37:45.949586,-2,1,-1,1,-12,-5,-1,2
15:37:45.965576,-5,-1,-1,-2,-1,-2,-1,-4
15:37:45.972572,1,-1,-3,0,-5,1,0,-1
15:37:45.987563,2,4,0,-1,0,-1,-1,1
15:37:45.988562,1,-1,-1,-5,0,-2,-4,-3
15:37:46.002553,-2,-2,0,-1,-3,-1,-2,-3
15:37:46.009548,2,-1,-2,-4,-6,-4,0,2
15:37:46.025538,-1,-1,-2,-28,-9,-2,0,-3
15:37:46.032534,1,-2,-2,9,11,3,-1,0
15:37:46.047525,2,-3,1,-2,-4,-1,2,-1
15:37:46.055521,-1,1,2,2,2,0,3,-3
15:37:46.062515,0,-1,-4,-1,1,1,1,4
15:37:46.070511,-4,0,-3,-4,3,2,-1,-2
15:37:46.085499,0,-1,1,-1,-5,-2,0,0
15:37:46.092496,0,-1,0,4,3,0,-2,-3
15:37:46.107488,-2,-2,3,3,-1,-1,-3,0
15:37:46.115483,0,2,-1,-1,-3,-2,-2,-2
15:37:46.123478,1,0,4,30,18,1,-3,-2
15:37:46.130470,0,1,8,-3,-18,-1,-1,1
15:37:46.145464,0,-2,-1,7,9,-1,0,3
15:37:46.152460,3,4,7,-2,-14,2,0,2
15:37:46.167451,-6,-10,-9,8,-1,-5,-4,-4
15:37:46.175445,3,9,32,1,-4,4,4,4
15:37:46.182442,12,8,-7,113,68,16,5,8
15:37:46.190436,10,7,-1,58,32,6,5,7
15:37:46.205427,0,2,-15,-115,27,19,3,3
15:37:46.212422,-3,-11,2,-128,-128,-21,-6,-2
15:37:46.227413,-11,-35,-97,127,127,5,-6,-8
15:37:46.235406,-4,9,35,21,-1,2,2,-3
15:37:46.242404,7,5,21,39,-128,-75,-7,5
15:37:46.250399,15,43,103,86,127,66,7,2
15:37:46.265390,2,-22,-29,127,-128,-37,-1,1
15:37:46.272385,-51,-90,-76,-128,127,-58,-30,-38
15:37:46.287376,19,47,32,25,-128,-8,13,14
15:37:46.302367,10,20,17,-104,127,55,0,8
15:37:46.303375,65,127,121,127,-128,29,24,36
15:37:46.310359,-59,-121,-37,127,127,-4,-37,-39
15:37:46.325351,17,29,92,-128,127,19,25,22
15:37:46.332348,18,-31,-78,25,-128,-40,25,31
15:37:46.347338,-103,-87,-12,127,127,-50,-64,-83
15:37:46.355334,75,98,91,-128,-128,19,36,48
15:37:46.362329,-12,-30,-34,124,34,-19,-3,4
15:37:46.370325,32,42,63,-102,76,29,16,20
15:37:46.385316,-2,-2,73,127,127,-65,-3,4
15:37:46.392309,-7,3,-8,-111,15,-5,-20,-8
15:37:46.407302,19,-3,9,127,-16,29,22,21
15:37:46.408301,-23,-48,-42,-60,-55,-18,-1,-8
15:37:46.422292,27,14,-41,-40,-21,16,11,10
15:37:46.430288,-36,-28,-17,18,-3,-6,-5,-27
15:37:46.445278,14,37,15,-128,-76,-1,-4,14
15:37:46.452274,-57,-128,-128,37,96,-17,-15,-39
15:37:46.467265,-38,64,39,-128,13,-5,10,17
15:37:46.468265,-13,-36,-41,-102,-128,-67,-5,2
15:37:46.482255,-72,-128,-83,113,-88,-24,-26,-32
15:37:46.490250,53,61,-4,-89,127,-8,20,16
15:37:46.505242,15,51,60,-5,-128,-9,-2,-6
15:37:46.512236,-33,-14,-12,85,29,56,-1,-10
15:37:46.527228,-43,-128,-45,127,127,70,25,17
15:37:46.528227,21,-57,-107,-128,-128,-105,5,18
15:37:46.542216,41,119,117,127,127,98,10,3
15:37:46.550214,-6,-18,-55,-128,127,-3,1,-3
15:37:46.565204,5,8,-20,4,127,2,-4,2
15:37:46.572200,-17,-61,71,127,15,18,8,2
15:37:46.587190,27,60,35,74,127,46,8,3
15:37:46.588187,5,-10,-18,-128,-73,22,4,3
15:37:46.602179,-6,3,19,39,127,33,5,6
15:37:46.610175,13,-4,23,127,127,-2,11,10
15:37:46.625164,-25,-74,-55,-128,-28,-39,-8,-5
15:37:46.632162,-46,-66,-41,-30,27,-16,-24,-22
15:37:46.647150,-7,-9,16,97,22,115,5,-1
15:37:46.655145,28,60,18,-72,-40,-32,-5,1
15:37:46.662141,11,-11,-40,-76,100,13,15,14
15:37:46.670139,25,42,22,25,5,9,5,13
15:37:46.685130,43,86,-5,-128,-87,-57,0,8
15:37:46.693123,-25,-23,-2,-55,-128,14,-9,-14
15:37:46.707116,-26,-38,8,127,85,127,1,-6
15:37:46.722103,17,-8,-35,-37,-128,-32,9,18
15:37:46.730102,15,52,5,-108,-109,-27,-1,-1
15:37:46.730102,-16,1,68,104,-128,4,-4,-10
15:37:46.745090,2,-16,-11,-15,127,4,-2,-2
15:37:46.752089,13,20,-2,-105,-51,-10,-2,3
15:37:46.767076,10,13,11,-7,127,23,6,7
15:37:46.775071,20,19,-38,-107,-128,-31,5,8
15:37:46.790062,-27,-36,-34,53,110,13,-6,-11
15:37:46.791061,-43,-81,-17,88,16,22,-7,-14
15:37:46.805056,3,-3,-34,-128,-128,-67,2,0
15:37:46.813050,-2,-7,-36,-105,-38,-27,-9,0
15:37:46.828040,-13,-8,11,123,36,-10,-9,-10
15:37:46.835034,-22,-36,-40,66,40,-7,-4,-10
15:37:46.850025,-13,-24,-17,69,127,45,1,-3
15:37:46.850025,3,-4,-10,-26,68,8,-6,-2
15:37:46.865016,16,20,2,-13,17,5,7,7
15:37:46.880009,6,-1,15,32,-34,-14,0,3
15:37:46.887004,-1,-4,57,127,88,19,4,5
15:37:46.894996,14,21,-15,-74,-128,-31,4,6
15:37:46.909990,5,17,15,36,-13,14,-2,0
15:37:46.910991,5,-6,7,42,127,19,10,6
15:37:46.924979,20,31,12,-47,-102,-27,3,11
15:37:46.932974,-26,-39,0,80,-116,-21,-13,-11
15:37:46.947967,2,4,2,-43,-128,-24,-2,0
15:37:46.954960,-8,-8,22,127,9,65,-3,-4
15:37:46.969951,-38,-68,-29,46,-39,-24,-7,-15
15:37:46.970950,12,27,31,-31,-52,0,8,7
15:37:46.984942,-1,-1,3,-38,-128,-49,-3,-3
15:37:46.991939,-12,-17,5,122,3,33,1,-4
15:37:47.007930,16,28,24,-52,127,43,7,7
15:37:47.014923,1,4,3,-76,-128,-18,2,3
15:37:47.029913,7,21,11,76,-128,-46,-5,-2
15:37:47.030915,0,19,27,40,-24,13,-8,-9
15:37:47.044904,14,20,1,72,127,-2,6,11
15:37:47.052899,12,21,44,-10,-17,7,1,3
15:37:47.067890,0,2,8,-48,-41,-54,-1,-3
15:37:47.074887,-25,-37,-6,89,80,15,-7,-10
15:37:47.089876,2,13,26,127,38,19,-5,-6
15:37:47.090878,11,12,-12,-113,-128,-43,2,5
15:37:47.104870,-15,-20,-18,15,106,19,-3,-10
15:37:47.112865,16,12,-32,15,-128,-21,5,10
15:37:47.127855,-24,-29,-25,-49,-27,10,-5,-13
15:37:47.134850,-6,-14,-45,-79,-28,-16,-7,-6
15:37:47.157833,10,10,24,75,14,2,4,5
15:37:47.157833,2,-6,20,127,127,41,3,2
15:37:47.165829,-4,-14,-39,-128,-125,-20,0,1
15:37:47.172837,-1,2,11,0,-128,-62,-5,-4
15:37:47.187818,-24,-46,-24,71,127,39,-2,-7
15:37:47.194811,6,7,-2,-55,-92,-9,0,-1
15:37:47.209804,2,5,12,23,18,20,4,0
15:37:47.210803,-3,3,19,35,-45,-16,0,0
15:37:47.224793,-7,-3,-4,62,109,13,1,0
15:37:47.232790,-1,-8,-27,-39,-44,-14,-3,-5
15:37:47.247780,-14,-15,19,77,127,20,-8,-17
15:37:47.254773,22,20,23,19,-99,-38,3,11
15:37:47.269767,0,-2,10,33,10,13,-1,-3
15:37:47.277762,17,11,13,47,62,17,5,3
15:37:47.285758,14,8,1,-16,-29,-10,-12,-2
15:37:47.292753,41,13,3,0,-5,-8,-3,2
15:37:47.307744,9,-5,-1,54,31,8,2,1
15:37:47.315739,-6,0,11,61,61,7,-3,-7
15:37:47.329730,-1,0,-2,-68,-95,-2,-2,-6
15:37:47.330729,5,3,-1,-6,1,-2,-1,4
15:37:47.345719,-2,-2,-3,-11,-20,-8,-4,-5
15:37:47.359709,-6,-1,-4,-5,-10,-12,-11,-9
15:37:47.374702,-54,-26,-3,1,8,21,11,14
15:37:47.375699,16,4,-3,-5,-9,-2,-3,24
15:37:47.389692,48,6,6,6,12,20,-39,20
15:37:47.390692,3,-21,-21,-23,-33,-55,-39,37
15:37:47.405684,1,-10,6,6,19,70,-31,52
15:37:47.412678,84,22,1,-2,1,57,41,-109
15:37:47.427669,-59,-11,-34,-29,-24,-28,127,-90
15:37:47.435665,24,25,-11,-15,-40,-128,-128,-128
15:37:47.449655,34,8,-2,-7,-9,2,-128,127
15:37:47.450655,-108,-21,11,15,14,-33,77,-128
15:37:47.465644,28,-31,-20,-28,-20,-47,-64,127
15:37:47.472639,2,-21,-5,-1,11,83,127,-52
15:37:47.487632,54,62,18,4,-5,-41,81,-69
15:37:47.495626,-10,-55,-29,-25,-73,-56,-14,-48
15:37:47.509615,-18,8,-27,-65,-38,-31,11,-10
15:37:47.510615,-71,-39,13,-128,-92,20,-8,-42
15:37:47.525606,49,41,14,-42,-19,-6,1,63
15:37:47.532601,-70,11,53,127,127,-14,18,-43
15:37:47.547592,-4,-35,-12,-13,30,76,-85,-13
15:37:47.554590,-66,19,-15,127,-128,-48,-43,-54
15:37:47.569581,-33,44,-128,-128,-3,-50,127,-128
15:37:47.570581,34,-61,13,96,95,-128,-128,127
15:37:47.592567,-15,82,-5,-96,-128,-99,4,-90
15:37:47.592567,-31,2,0,96,127,114,21,-44
15:37:47.607558,25,16,23,-78,34,31,9,-23
15:37:47.615556,127,-59,30,-109,-62,102,26,127
15:37:47.630540,-30,7,15,-54,15,-39,-58,4
15:37:47.637539,-67,-30,-12,44,-20,0,-37,-84
15:37:47.652530,127,-7,-2,-99,127,-49,-128,127
15:37:47.653529,-112,2,62,57,127,47,37,-47
15:37:47.667518,-49,4,24,3,-73,-63,7,-39
15:37:47.682511,22,2,-9,28,127,60,19,31
15:37:47.690504,45,31,40,120,103,64,41,59
15:37:47.697499,10,-15,-32,5,9,-23,-18,-18
15:37:47.712492,-4,5,21,102,127,22,5,6
15:37:47.713490,0,-4,-6,-128,-128,-16,-1,5
15:37:47.727483,-5,-21,-2,90,127,7,-6,16
15:37:47.735479,27,16,5,-7,-128,1,6,11
15:37:47.750470,26,11,13,62,127,0,-27,18
15:37:47.757465,11,6,6,118,127,1,-20,-33
15:37:47.772455,-5,1,0,-33,-44,19,-4,-10
15:37:47.772455,-13,-17,-30,-3,-36,-4,-4,-8
15:37:47.795441,111,-1,-16,52,127,20,23,-4
15:37:47.795441,-39,-11,7,20,-4,-35,-22,-25
15:37:47.810432,53,21,12,-128,-128,20,19,33
15:37:47.817425,30,-21,20,104,-34,15,7,-22
15:37:47.832415,-12,-10,-13,-2,4,-9,-20,-24
15:37:47.833417,-5,1,-6,-26,110,8,-13,0
15:37:47.847409,6,0,-10,67,-128,-1,14,1
15:37:47.855404,11,-3,1,21,1,3,13,-13
15:37:47.877390,-7,-8,-11,16,6,-21,-11,0
15:37:47.878387,32,9,-8,-18,-86,-10,0,12
15:37:47.892381,-27,-15,-1,60,-64,4,1,-22
15:37:47.893378,-19,3,5,-21,-120,-13,-3,-11
15:37:47.915364,-7,-7,-3,77,2,-5,2,-13
15:37:47.915364,-17,-1,-6,7,-91,-4,3,-13
15:37:47.930355,-11,-9,5,-44,-89,-45,-20,-1
15:37:47.937350,-15,-6,-42,-27,-16,18,13,10
15:37:47.960336,-14,-14,39,33,127,20,-5,-13
15:37:47.960336,8,-7,-8,49,95,-8,8,15
15:37:47.967331,-10,-6,-3,13,53,1,-16,-17
15:37:47.975327,32,11,7,-22,-64,15,2,47
15:37:47.990318,72,20,-11,-45,8,19,35,43
15:37:47.997316,-29,-4,16,127,119,-17,-16,-25
15:37:48.012304,-7,-1,11,56,-57,-7,-6,1
15:37:48.013303,3,1,-22,56,76,22,8,3
15:37:48.027295,-2,2,7,-25,41,3,-4,-2
15:37:48.035293,7,3,5,-31,-107,-13,3,6
15:37:48.050281,-12,-8,4,39,86,21,-6,-36
15:37:48.057278,20,4,-20,-83,-91,-12,8,12
15:37:48.072266,2,2,-8,-25,18,4,0,-6
15:37:48.073269,12,4,4,-6,9,13,19,34
15:37:48.087259,-1,0,13,77,-41,-3,-1,-4
15:37:48.095255,-16,-15,-17,17,-20,-18,-15,-21
15:37:48.110244,-1,4,9,-4,19,14,4,3
15:37:48.117241,0,1,5,46,-1,-11,-6,-2
15:37:48.132232,-31,5,3,66,20,10,3,-15
15:37:48.133229,7,0,-4,11,34,-1,-5,-3
15:37:48.147220,-11,-8,-4,-13,17,-1,3,4
15:37:48.155215,1,4,-1,23,-67,5,2,6
15:37:48.170206,-6,-8,-9,-4,6,-19,-10,-8
15:37:48.185200,1,2,4,0,41,11,3,2
15:37:48.208182,-11,-2,0,2,-14,-8,-9,-6
15:37:48.208182,0,-1,0,-41,-6,0,-3,-2
15:37:48.209183,3,-2,1,-3,-2,-12,-16,-11
15:37:48.215180,-1,-1,-6,13,-58,-7,-5,0
15:37:48.230171,-1,1,-3,-43,54,13,2,1
15:37:48.237167,-4,1,1,12,37,-12,-3,-5
15:37:48.253157,11,4,-1,-7,-47,-2,-1,0
15:37:48.253157,-2,-2,-1,12,16,2,-2,-1
15:37:48.267146,0,0,-2,-10,9,2,1,-1
15:37:48.275141,-1,0,1,6,-29,-6,-3,0
15:37:48.290131,-3,-4,-1,-2,6,-1,-2,-3
15:37:48.297128,2,2,-5,-20,-7,-1,2,0
15:37:48.312117,-3,-1,0,2,-6,-3,-3,-5
15:37:48.313119,2,1,4,60,-56,3,0,1
15:37:48.328109,-3,-4,-2,104,110,5,-1,-4
15:37:48.335106,2,2,2,-11,-101,-8,1,-1
15:37:48.350097,-3,-1,-3,13,36,3,-5,-9
15:37:48.357099,4,1,1,-1,3,2,4,5
15:37:48.372084,-1,1,-4,0,-7,1,2,2
15:37:48.373083,5,2,-1,0,-2,-1,4,2
15:37:48.387073,-3,-1,-1,-1,-2,1,1,1
15:37:48.395066,-4,-2,-2,-4,-6,-3,-6,-2
15:37:48.410057,-8,-1,1,-1,-2,-4,0,-5
15:37:48.417055,1,1,-1,-5,-5,3,3,3
15:37:48.433046,4,0,2,30,40,3,0,2
15:37:48.433046,-2,-2,-2,-10,4,-3,-2,1
15:37:48.448037,-3,-3,-3,3,12,-1,-4,-5
15:37:48.455032,3,2,0,-1,6,0,0,2
15:37:48.470020,-4,-1,0,-3,4,0,-3,-3
15:37:48.478016,-3,1,-2,-4,-3,0,1,1
15:37:48.493005,0,1,-2,-3,-1,-2,-1,-1
15:37:48.493005,0,-2,-3,-1,-6,-4,-4,-1
15:37:48.508000,-3,3,-1,-4,-2,-3,-2,-3
15:37:48.522992,0,2,3,-1,-1,0,-1,1
15:37:48.529982,0,-4,-1,1,-3,-2,0,-1
15:37:48.537981,3,3,4,0,0,0,1,1
15:37:48.552971,-4,1,1,-5,-2,-1,-2,-4
15:37:48.559964,2,2,2,1,-2,1,0,-1
15:37:48.567963,0,0,3,15,9,3,0,-3
15:37:48.574955,1,1,-1,0,-1,1,-1,-1
15:37:48.589949,-2,-1,-3,-3,-1,-1,2,1
15:37:48.597941,4,3,-1,-2,-3,-6,0,3
15:37:48.612931,-3,1,1,0,4,4,-1,-1
15:37:48.619927,1,-1,2,1,-1,2,-1,-3
15:37:48.634918,0,-1,0,-3,-4,-4,-2,-3
15:37:48.635917,-2,-1,0,-1,-1,-1,0,-1
15:37:48.649908,0,-1,1,-1,-1,3,-3,-4
15:37:48.657906,-2,0,-2,-4,-1,2,-2,1
15:37:48.672899,-1,1,-1,-4,0,-6,-2,-1
15:37:48.679892,-2,-3,-3,-2,-3,-7,-6,-3
15:37:48.694883,-3,1,-3,-1,1,-2,-1,1
15:37:48.695880,0,1,-2,0,-1,-3,0,0
15:37:48.717866,-2,-3,-1,-2,-4,-4,-3,0
15:37:48.717866,1,-2,0,-3,0,-1,-1,1
15:37:48.732860,-3,0,2,1,-3,0,2,-1
15:37:48.739852,2,0,-3,-2,-2,-3,-1,-1
15:37:48.754844,-4,-3,-3,-3,-3,1,-3,-4
15:37:48.755843,-2,-2,-4,3,-3,-2,-4,1
15:37:48.770837,-2,-1,-1,0,0,-1,0,-2
15:37:48.777830,-3,0,0,0,0,0,-1,0
15:37:48.792820,0,2,-3,-1,-3,-3,2,-1
15:37:48.799815,-1,-2,0,-1,-3,-1,-4,-3
15:37:48.822801,2,2,-1,4,8,4,5,3
15:37:48.822801,-3,-3,-1,11,-10,-5,-3,-1
15:37:48.829799,-5,-1,0,19,32,2,-5,-5
15:37:48.837797,4,1,0,-21,-44,-9,-1,0
15:37:48.852785,-3,-6,2,93,34,-1,-5,-2
15:37:48.859780,-3,0,-3,-4,31,0,-2,-3
15:37:48.874769,-2,2,-2,-10,4,-3,1,0
15:37:48.875769,-2,2,0,3,-1,0,-1,1
15:37:48.889760,-2,1,1,-1,-3,-3,1,-1
15:37:48.904752,1,2,2,6,9,5,-1,3
15:37:48.912746,3,1,1,-2,-3,-2,0,1
15:37:48.919742,0,-1,-1,-2,0,0,-2,-6
15:37:48.934735,-3,-2,0,-2,-6,-1,0,-2
15:37:48.935735,-3,-1,-2,-1,1,-4,-2,1
15:37:48.949724,1,-1,0,2,-2,1,2,3
15:37:48.957720,2,1,1,-1,0,0,-2,-1
15:37:48.972711,1,0,-2,-1,-6,-2,1,0
15:37:48.979705,3,-1,1,11,10,-4,-6,0
15:37:48.994695,-1,-3,-1,-5,-5,1,1,2
15:37:48.995694,1,-1,-2,0,-10,0,-1,1
15:37:49.017683,0,-3,1,16,3,-3,0,-1
15:37:49.018680,1,-2,0,-1,-2,4,0,1
15:37:49.032671,0,-1,-2,2,-1,-2,-3,-3
15:37:49.039670,-2,-1,-2,-1,-4,0,2,1
15:37:49.062653,-2,1,-3,-3,2,-1,-1,-2
15:37:49.063655,-3,0,-1,-1,-11,1,-2,1
15:37:49.069649,-1,3,2,5,6,-3,-2,-6
15:37:49.077643,-3,1,1,-2,8,4,1,-1
15:37:49.099629,-4,-3,-3,-11,-11,-3,-2,2
15:37:49.100632,1,-4,1,0,1,0,5,1
15:37:49.114620,-2,-1,-1,11,11,-2,1,-1
15:37:49.115619,-3,2,-1,-2,-5,-4,-2,2
15:37:49.129612,-2,-2,-1,-14,-7,-2,-3,-3
15:37:49.137609,-3,-6,-1,4,5,1,0,-3
15:37:49.152600,2,2,-4,-5,-9,0,0,1
15:37:49.159594,1,0,1,5,3,-2,-5,-4
15:37:49.175583,0,1,2,-2,-2,-6,0,1
15:37:49.175583,0,4,1,-4,-5,-3,-2,-1
15:37:49.190574,0,-3,1,0,-2,-4,-2,0
15:37:49.197571,1,1,-2,4,-7,2,-2,2
15:37:49.212562,1,3,1,-4,-7,-6,-1,2
15:37:49.220555,3,2,3,-25,-6,1,-1,0
15:37:49.235546,-2,-2,1,5,7,-1,-1,-3
15:37:49.235546,-1,0,1,-3,-6,-2,0,-5
15:37:49.250536,-3,-3,3,2,2,-2,-5,-1
15:37:49.257535,1,-1,1,12,5,0,-1,-3
15:37:49.272522,-1,-2,-3,-1,-11,2,-1,-1
15:37:49.280519,0,0,2,1,0,-3,-4,1
15:37:49.295511,-1,1,1,1,1,2,-2,-2
15:37:49.302504,1,-1,0,0,0,3,0,1
15:37:49.310502,1,-3,-2,1,3,-2,-1,-3
15:37:49.317494,2,3,3,4,8,2,4,2
15:37:49.332488,-4,0,-1,-3,-10,-4,-2,-4
15:37:49.339484,2,2,0,5,3,0,1,2
15:37:49.362467,-1,-1,-2,-8,-5,-2,1,-1
15:37:49.363469,-4,-1,-5,0,0,-2,-2,-4
15:37:49.370462,-2,-4,0,-2,0,-3,-2,0
15:37:49.377460,-1,0,-2,-4,5,2,1,-3
15:37:49.392451,0,-2,0,1,-5,-3,-1,-3
15:37:49.400444,-1,-1,1,20,11,4,1,0
15:37:49.415434,-3,-2,-1,4,11,3,-2,1
15:37:49.415434,-1,-2,2,4,0,-6,-5,-1
15:37:49.430424,0,-2,0,-1,1,-2,-1,-4
15:37:49.437423,3,2,2,0,-3,0,-4,3
15:37:49.452413,2,-4,1,-10,0,-2,-1,0
15:37:49.460407,0,1,-1,5,-3,0,-4,1
15:37:49.475397,-2,-1,-1,-10,9,0,-3,-4
15:37:49.475397,2,-1,-1,2,-2,-2,-1,-1
15:37:49.490391,-2,-3,0,-3,-3,0,2,1
15:37:49.497385,0,1,3,-1,-2,-3,-2,-2
15:37:49.512376,0,1,1,0,-3,-1,0,-1
15:37:49.520372,-2,1,1,-2,-2,0,0,-2
15:37:49.542354,-5,-2,-1,-4,-1,1,-1,-1
15:37:49.543355,4,2,1,2,4,2,1,2
15:37:49.557346,-2,1,-3,12,-10,-1,-1,1
15:37:49.558347,-3,2,0,8,1,-3,-1,0
15:37:49.572339,-6,-5,-2,-4,-7,-2,-1,-4
15:37:49.580334,0,0,-3,1,-1,-1,-1,0
15:37:49.595325,4,-1,0,2,0,1,-1,-1
15:37:49.602320,-3,2,-1,-1,-3,0,-2,-2
15:37:49.625303,0,3,4,1,2,0,-4,7
15:37:49.625303,-1,0,-3,-1,1,0,-3,-3
15:37:49.632301,-2,0,-3,-2,0,0,-2,-4
15:37:49.640296,3,-1,2,-1,-4,-3,-5,-3
15:37:49.662283,-1,0,1,2,7,0,-2,-2
15:37:49.663282,1,1,-2,17,10,0,-3,-3
15:37:49.677271,-1,-1,-3,-5,-2,-2,-1,-2
15:37:49.678271,-3,-1,0,-1,-6,-1,-2,0
15:37:49.692262,0,1,0,0,1,1,-1,-2
15:37:49.700260,-1,-2,0,-1,-5,-2,-5,-3
15:37:49.715248,-1,-3,-4,-4,-1,-3,-1,-4
15:37:49.722245,1,0,0,-1,2,0,-1,1
15:37:49.737236,-2,-3,-3,-2,-2,-4,-1,-2
15:37:49.738233,-1,2,2,1,0,0,-3,-2
15:37:49.752227,1,0,-3,1,4,-1,0,0
15:37:49.767218,3,-1,3,-1,-6,0,0,-3
15:37:49.775211,-1,-1,-1,0,-2,-4,0,-1
15:37:49.782208,1,0,2,-1,2,-3,-3,-1
15:37:49.797197,-1,0,-1,-4,-9,-2,-4,-1
15:37:49.798198,0,-2,2,1,7,2,1,0
15:37:49.820182,2,0,-2,-7,-5,-3,1,2
15:37:49.820182,1,-5,-1,13,22,10,-4,-6
15:37:49.835174,-3,-1,0,-5,-1,0,0,-2
15:37:49.850164,0,-1,0,-4,-10,-1,0,-1
15:37:49.857160,-1,-1,-1,2,2,-2,-1,3
15:37:49.858159,-1,-4,0,0,-3,-1,-4,-4
15:37:49.872151,3,4,1,2,0,-1,3,4
15:37:49.880145,-2,0,0,-2,2,-1,-6,-3
15:37:49.895139,-3,-1,1,-1,2,-1,0,-3
15:37:49.902133,1,1,0,1,-3,-1,-1,-1
15:37:49.917123,1,1,2,2,-1,-1,3,2
15:37:49.918122,-3,2,-1,1,-2,1,-3,0
15:37:49.932113,-5,1,-1,-4,4,2,-1,-2
15:37:49.940109,2,2,3,2,7,1,-2,4
15:37:49.955099,-3,-1,2,1,2,2,-2,1
15:37:49.963097,-3,-1,-5,-3,2,-1,1,2
15:37:49.977085,0,-1,1,-5,-2,-2,1,-3
15:37:49.978087,6,8,8,7,7,13,8,7
15:37:49.993075,0,-3,-1,0,-3,-6,-2,0
15:37:50.000074,1,1,1,-1,-3,3,2,3
15:37:50.015062,1,3,0,2,0,-4,-1,1
15:37:50.022061,1,0,-3,-1,1,-1,1,2
15:37:50.037048,-1,0,-2,0,4,-1,0,-1
15:37:50.038050,2,2,4,4,3,5,4,1
15:37:50.053038,0,-2,-3,0,1,-3,0,-2
15:37:50.060035,5,4,3,4,7,1,0,0
15:37:50.075025,-3,-5,-3,-22,-19,-3,-3,-1
15:37:50.082020,-1,0,-3,11,16,1,-4,-5
15:37:50.098012,3,1,2,-6,1,0,0,0
15:37:50.105006,-1,-1,-3,-4,-9,1,-2,-2
15:37:50.113002,-4,-2,-2,-3,-1,-2,-1,1
15:37:50.127995,0,-2,1,-1,3,0,-2,-4
15:37:50.134987,3,-1,-2,0,2,4,2,3
15:37:50.141985,-2,-2,1,-4,-1,1,-4,-4
15:37:50.164969,-6,-1,-1,-2,6,-3,-2,-2
15:37:50.165970,4,-1,1,1,-5,-3,0,4
15:37:50.171966,-2,-3,-2,-3,5,-2,-3,-5
15:37:50.179963,-1,1,0,-2,-3,-4,-2,-3
15:37:50.195952,0,0,1,-1,-5,0,-1,-3
15:37:50.202951,2,-1,1,13,9,1,-1,2
15:37:50.217936,-1,-3,0,6,-3,-3,-2,-3
15:37:50.217936,1,-1,0,4,3,2,-3,0
15:37:50.232930,-2,-1,-3,-5,-3,-3,-1,-3
15:37:50.239925,1,1,0,0,-3,-1,-6,-3
15:37:50.254916,-1,0,-2,1,-2,-1,0,0
15:37:50.262908,0,-1,0,0,1,-2,-3,-5
15:37:50.277899,0,0,-2,0,1,-3,1,-1
15:37:50.277899,0,0,-2,0,-1,-1,-2,2
15:37:50.292889,-4,-1,-1,1,-2,1,-1,-1
15:37:50.299888,3,3,4,5,-2,3,0,2
15:37:50.314875,-1,1,2,0,3,1,-2,2
15:37:50.322874,2,1,-1,-3,-1,-2,-5,-1
15:37:50.337863,1,3,-1,-3,-2,-1,0,0
15:37:50.337863,3,2,2,2,6,-2,0,1
15:37:50.352855,1,2,0,-1,3,0,-2,-1
15:37:50.359851,0,2,-2,-1,1,-1,-4,-3
15:37:50.374841,-5,-2,-3,-4,-2,-2,-3,-4
15:37:50.382836,2,3,0,-3,0,8,-3,1
15:37:50.397824,-1,1,2,12,11,1,-1,-2
15:37:50.397824,3,0,-2,-18,-13,0,1,-4
15:37:50.412816,0,0,-1,3,2,-3,1,-1
15:37:50.419811,3,0,1,-4,-2,-2,-2,1
15:37:50.434803,0,-1,-1,0,-2,1,0,0
15:37:50.442796,0,2,1,5,4,-3,-1,1
15:37:50.457789,-3,-2,-3,0,1,-2,-1,-4
15:37:50.464783,-1,0,1,4,10,3,0,-1
15:37:50.472778,-1,1,-2,-2,-1,3,3,1
15:37:50.479776,2,1,1,4,-9,-3,-3,4
15:37:50.495767,0,-1,1,0,7,2,-1,0
15:37:50.502761,3,1,0,0,3,-5,0,0
15:37:50.517750,-1,-3,-1,-2,1,3,-3,-2
15:37:50.524746,1,1,-3,-2,-5,-1,0,4
15:37:50.539737,-1,-1,0,-1,0,2,1,1
15:37:50.540738,0,-3,-4,0,-3,-2,-1,1
15:37:50.554728,-2,-1,-4,-36,-11,-3,-1,-1
15:37:50.562723,0,-1,0,10,2,-6,-2,-1
15:37:50.577713,3,0,0,0,3,1,1,2
15:37:50.584722,5,0,-2,-3,1,1,1,3
15:37:50.599699,0,-3,-1,-1,-1,-1,0,-2
15:37:50.600699,1,4,-1,-1,-1,-2,-2,-1
15:37:50.615693,2,0,0,4,6,1,0,-1
15:37:50.622685,-3,0,1,1,7,-1,-4,-4
15:37:50.637678,2,0,-2,-4,-4,-1,-3,1
15:37:50.652669,-1,1,1,-3,-2,-2,-3,-3
15:37:50.659663,1,1,3,2,-2,-1,-3,1
15:37:50.660662,0,-1,-3,-4,1,3,0,0
15:37:50.675652,-2,-3,-1,-3,-4,-3,0,0
15:37:50.682648,-2,1,1,-3,1,-2,-4,-2
15:37:50.697639,0,-1,-1,2,-1,-1,0,-4
15:37:50.704634,0,2,2,0,-4,-3,-3,0
15:37:50.719625,-1,-1,-2,-4,3,-2,0,-7
15:37:50.727620,2,3,2,-9,-12,-7,0,2
15:37:50.735618,-8,-9,-6,5,11,1,-3,-8
15:37:50.742613,1,2,3,2,-4,0,-2,-1
15:37:50.765596,-2,-2,0,-4,0,0,-1,1
15:37:50.765596,0,-2,0,-3,-1,2,-5,-3
15:37:50.780587,1,2,3,0,2,4,2,3
15:37:50.780587,1,1,-1,-1,-3,-3,3,-1
15:37:50.795578,1,-4,0,1,-1,-4,-2,-2
15:37:50.802576,1,2,0,-1,-1,3,-2,-4
15:37:50.817567,1,1,2,0,3,-6,-3,1
15:37:50.825560,-1,3,-1,0,1,0,-3,0
15:37:50.847545,1,1,-1,3,2,4,1,3
15:37:50.848548,0,0,-3,0,-12,-3,0,0
15:37:50.854543,-1,-1,-2,15,10,0,-1,-1
15:37:50.862536,2,-1,2,-1,-3,0,-2,-1
15:37:50.877527,-2,0,-1,0,2,-2,-4,-4
15:37:50.885522,2,-1,0,1,0,-1,-3,0
15:37:50.899515,-1,0,-1,2,1,-2,0,1
15:37:50.907508,-2,0,0,0,-1,0,-1,0
15:37:50.915507,0,-2,-2,-1,-1,-3,-3,-1
15:37:50.922502,2,2,0,-1,-1,2,-4,-2
15:37:50.937489,-3,-3,-3,-5,-7,1,-3,-3
15:37:50.945488,-4,2,1,5,5,-4,-4,-3
15:37:50.960476,-2,-1,-1,-5,3,-1,-2,0
15:37:50.960476,2,1,-2,-1,-2,2,3,1
15:37:50.975466,1,0,2,9,8,-1,1,-1
15:37:50.982462,0,-2,-1,-17,-14,-7,4,-1
15:37:50.997453,-1,3,-1,3,3,-2,0,0
15:37:51.005450,2,-1,2,-2,-1,-4,-3,-4
15:37:51.020439,0,-1,-2,3,1,3,1,1
15:37:51.020439,5,1,2,2,7,1,1,4
15:37:51.035429,-2,0,0,-2,-5,0,1,0
15:37:51.042427,0,0,0,2,0,1,-4,0
15:37:51.057418,-3,-1,1,-3,-1,3,-2,-4
15:37:51.065413,-3,0,0,-3,-2,1,-1,1
15:37:51.080402,1,1,2,2,-4,-1,-1,3
15:37:51.081401,1,5,-2,0,14,8,1,2
15:37:51.095394,-2,-5,-1,18,4,-1,0,-4
15:37:51.102390,2,1,2,-9,-6,0,-2,0
15:37:51.117381,-1,1,-2,0,-1,-2,0,-1
15:37:51.125375,0,0,3,-2,-1,0,-2,-2
15:37:51.140365,-2,-2,-2,-3,0,-2,-1,-4
15:37:51.140365,3,1,2,9,8,2,1,3
15:37:51.155358,-2,-2,-3,-3,-7,-1,0,-3
15:37:51.162353,0,1,2,0,3,-1,-3,0
15:37:51.177344,-4,-4,-1,0,-1,-2,0,-3
15:37:51.185336,-2,0,1,0,4,0,-2,1
15:37:51.200326,-2,-2,-2,1,2,0,0,-3
15:37:51.200326,0,0,1,5,-2,-3,-1,-2
15:37:51.215320,-2,0,0,1,3,3,0,1
15:37:51.222316,-1,-2,1,1,1,0,1,-3
15:37:51.237306,1,2,0,-7,-1,2,3,2
15:37:51.245298,0,1,1,1,-3,-1,-4,-1
15:37:51.267287,-1,-1,0,-1,-1,-2,-3,-3
15:37:51.268285,0,3,0,-1,-3,-3,-4,-2
15:37:51.275283,0,-3,-4,9,5,-3,-3,1
15:37:51.290274,-3,1,1,5,3,-2,-3,-1
15:37:51.297267,-3,-2,-3,0,-1,-2,-2,0
15:37:51.305264,1,0,2,2,1,1,-2,-3
15:37:51.320252,0,0,-3,-5,-1,-2,-1,-1
15:37:51.320252,1,0,-2,-1,-6,1,2,2
15:37:51.342241,-1,-2,-1,-5,-1,-2,-2,-3
15:37:51.343239,-1,0,1,0,-5,0,-3,-4
15:37:51.357232,0,3,-3,-1,4,1,-2,1
15:37:51.365227,2,1,0,0,-2,-1,-4,-2
15:37:51.380217,-2,-1,-1,-4,-5,1,0,2
15:37:51.381214,3,0,-3,-2,2,1,-3,-3
15:37:51.395208,0,1,2,-22,-7,2,2,3
15:37:51.402204,-1,1,1,8,9,-2,-3,-3
15:37:51.417192,-2,1,0,1,-3,1,-6,-2
15:37:51.425190,1,1,-1,-1,0,-2,-2,0
15:37:51.447176,3,-2,1,-2,3,3,0,-1
15:37:51.448173,-1,2,2,-5,-11,2,-1,-1
15:37:51.462167,1,-1,-1,4,6,1,1,2
15:37:51.463163,1,0,0,1,3,-3,0,-2
15:37:51.485153,-3,-1,-3,-1,0,3,2,1
15:37:51.486152,-1,0,0,0,7,-1,-5,-3
15:37:51.500143,-6,-2,-1,15,6,-1,-1,0
15:37:51.507139,-3,-2,-3,-6,-6,2,-2,-3
15:37:51.522129,2,-2,2,2,0,-1,4,1
15:37:51.523129,-2,1,0,-1,-1,-2,0,-4
15:37:51.538120,-2,1,-3,0,-2,-3,-2,0
15:37:51.545116,0,5,1,-3,7,-3,-1,0
15:37:51.567102,1,-2,0,0,0,-3,0,-1
15:37:51.568101,0,0,2,0,-6,-2,-8,-1
15:37:51.582092,0,-2,0,0,5,-3,1,-2
15:37:51.583089,-1,-1,1,2,-4,-1,-2,0
15:37:51.598082,-1,-4,0,-11,-3,0,-3,-3
15:37:51.605079,1,1,0,6,1,-2,-3,-2
15:37:51.620069,-3,1,-1,-1,2,1,-3,-3
15:37:51.635060,2,0,1,2,2,1,0,0
15:37:51.642053,0,0,-1,-3,-3,-4,0,-1
15:37:51.650051,0,2,1,-17,-18,-3,-3,0
15:37:51.658045,-1,-3,-1,5,10,3,-3,-4
15:37:51.665041,-1,1,3,-2,3,-1,-2,-2
15:37:51.680032,1,1,1,6,-5,1,0,-1
15:37:51.688027,-2,3,-2,4,4,3,-1,-5
15:37:51.702017,-4,0,-1,3,2,4,-3,-3
15:37:51.703015,2,4,3,-1,1,2,2,-1
15:37:51.718009,-1,-1,1,0,-2,-3,-4,0
15:37:51.725003,0,1,0,-1,-3,-2,-2,0
15:37:51.739995,0,0,1,0,-4,-1,-1,0
15:37:51.747990,-1,3,-3,-6,-1,3,2,1
15:37:51.762978,-2,0,-2,19,10,1,0,-2
15:37:51.762978,0,-2,0,0,3,0,0,-1
15:37:51.777969,-2,0,2,0,6,-2,0,0
15:37:51.792963,-1,-1,0,-7,-10,-2,-3,1
15:37:51.799955,-1,-2,-3,0,0,0,-1,1
15:37:51.807953,-3,-1,1,-3,-7,2,-2,-3
15:37:51.822942,3,0,2,4,3,1,0,1
15:37:51.822942,4,1,0,7,-2,-4,-2,-3
15:37:51.837931,-1,-2,-2,-2,0,-1,0,-1
15:37:51.844927,0,-1,-2,2,2,0,-3,-5
15:37:51.859918,-2,-3,-1,-2,4,-2,1,-6
15:37:51.874908,3,1,1,-5,0,2,1,1
15:37:51.881904,0,-3,-3,6,0,-2,-1,-3
15:37:51.882905,-1,1,-3,7,6,3,3,1
15:37:51.897897,-4,-1,-1,-11,-8,-1,0,-1
15:37:51.904891,-2,-1,0,-3,4,-1,-2,-3
15:37:51.919882,1,-1,-3,-4,2,0,-2,0
15:37:51.927876,0,4,2,-3,-7,-1,-2,-1
15:37:51.942867,-4,-2,-3,-1,-2,-3,-5,-5
15:37:51.942867,2,-1,-1,8,4,3,1,-1
15:37:51.957860,-1,0,1,0,4,-3,-1,-1
15:37:51.964852,-1,1,0,1,-5,-1,-2,0
15:37:51.979843,-1,2,1,2,-3,-5,0,1
15:37:51.987840,1,0,1,1,5,3,1,-1
15:37:52.002830,0,3,-1,-17,-17,-7,-2,2
15:37:52.002830,-1,-4,0,7,12,1,-4,-3
15:37:52.017820,-4,-3,-4,-3,-4,-1,0,-3
15:37:52.024817,3,2,2,1,-2,0,-2,2
15:37:52.039806,1,-1,-2,-1,-3,-3,-4,0
15:37:52.047801,-3,-2,-2,-3,-3,-1,-3,1
15:37:52.069787,-3,1,-2,-1,-2,1,1,2
15:37:52.070787,0,3,0,1,2,-5,-4,1
15:37:52.077782,-3,-3,-2,-1,-2,-1,1,-1
15:37:52.084781,0,-2,3,-3,-5,2,-1,-4
15:37:52.099769,0,2,0,7,-2,1,1,0
15:37:52.107767,2,-1,-1,-1,-1,-1,-3,2
15:37:52.122755,2,-2,0,-4,-9,-4,-3,0
15:37:52.122755,1,0,2,17,9,1,2,-1
15:37:52.137749,0,0,4,-1,7,1,1,3
15:37:52.144742,1,1,-2,6,-5,-1,0,4
15:37:52.159734,-3,-3,-1,-2,1,-1,-3,0
15:37:52.174724,2,0,-1,-1,0,-1,-3,0
15:37:52.182717,-2,-3,0,-3,0,-2,-1,-2
15:37:52.182717,2,1,3,-7,-3,-1,-6,-3
15:37:52.197708,1,-1,-1,1,5,-2,3,2
15:37:52.204704,-1,0,0,-2,-3,-6,-4,-1
15:37:52.220697,-2,-2,-4,-8,-3,0,-2,-2
15:37:52.227693,3,0,0,4,5,-3,0,3
15:37:52.242683,-2,3,-1,0,3,1,1,-2
15:37:52.242683,3,-2,0,4,0,0,0,3
15:37:52.257672,-1,-1,-5,-3,-5,0,-2,-2
15:37:52.264666,-1,-3,-1,3,9,1,-3,3
15:37:52.280660,-2,0,0,-2,0,-1,-2,-3
15:37:52.287652,0,-2,2,6,3,2,0,1
15:37:52.302643,-1,0,0,5,5,3,0,3
15:37:52.302643,-1,1,2,13,-3,-1,-2,-2
15:37:52.317634,0,-3,1,-1,0,0,-2,-3
15:37:52.324630,5,1,1,2,-1,-4,0,2
15:37:52.339621,-1,0,0,-2,-4,-3,-1,-4
15:37:52.347615,1,-3,1,1,-5,0,-2,-2
15:37:52.369602,0,0,-2,-2,1,0,1,-4
15:37:52.370601,2,2,0,0,-4,-2,-4,-2
15:37:52.377600,-2,0,-2,-1,-2,0,-2,2
15:37:52.385593,-2,2,3,0,0,2,-2,2
15:37:52.400585,0,1,-1,1,0,-1,2,1
15:37:52.407578,2,2,3,0,4,-1,-2,-1
15:37:52.422569,0,-1,-2,0,0,-3,-1,2
15:37:52.430564,-2,0,0,4,-1,2,-3,-2
15:37:52.444557,-3,1,-1,-3,-2,1,0,-1
15:37:52.445557,-2,-3,0,-2,9,2,-1,0
15:37:52.460548,-2,-4,2,4,2,-4,2,-1
15:37:52.467541,1,-2,0,-29,-13,0,0,0
15:37:52.482532,-2,2,-3,-7,1,3,-1,0
15:37:52.489529,-1,0,2,3,-3,-2,-2,1
15:37:52.505520,-3,-4,-4,-5,-1,0,-1,-2
15:37:52.505520,-2,1,0,-5,-6,-2,-5,-4
15:37:52.520511,3,-1,-2,-2,-5,-2,0,-2
15:37:52.527506,-1,0,-1,-1,1,0,-4,-3
15:37:52.542497,-2,-1,1,-2,-4,-4,-1,0
15:37:52.550491,-3,0,-2,0,-1,-2,1,-5
15:37:52.572478,0,-1,-1,0,1,4,0,0
15:37:52.573478,-3,1,0,-1,-4,-1,-4,-4
15:37:52.580474,2,-3,0,-3,-9,1,-1,0
15:37:52.595465,-4,0,2,1,4,-2,-2,-3
15:37:52.602460,-2,-3,-3,-2,-2,-1,-2,-4
15:37:52.610455,-1,-2,2,17,11,0,-1,0
15:37:52.625443,-1,1,3,4,-5,-1,-1,1
15:37:52.625443,0,1,-2,-9,1,-1,-5,-2
15:37:52.640437,2,2,-1,0,-4,-1,0,0
15:37:52.647432,0,0,-1,-3,-1,-2,-3,-1
15:37:52.662423,-3,-1,-2,-2,-2,2,-1,-2
15:37:52.670418,-2,1,2,-1,-2,0,-2,-1
15:37:52.685405,-1,-1,-2,-5,-2,0,0,-2
15:37:52.685405,-1,0,1,1,1,-2,-2,-5
15:37:52.707392,-1,-2,1,0,2,-2,-1,-1
15:37:52.708393,1,-2,0,-2,-11,-2,-2,-2
15:37:52.722383,-2,-3,2,-3,3,-1,-5,-3
15:37:52.730378,0,3,1,4,1,1,-1,-2
15:37:52.745370,-4,-6,-2,-19,5,-1,-2,-5
15:37:52.745370,1,-1,-2,2,4,-2,0,-1
15:37:52.760361,-3,-5,-1,-1,-10,-2,0,2
15:37:52.767356,3,2,-1,0,0,-3,-2,1
15:37:52.790340,-1,-2,-4,-6,1,-1,0,-1
15:37:52.790340,0,0,-1,-2,4,4,2,1
15:37:52.805331,-2,-3,0,7,4,3,0,2
15:37:52.805331,0,1,1,-3,-3,-1,0,-4
15:37:52.820323,-3,-3,-1,-4,-3,0,-1,-4
15:37:52.827317,0,1,2,7,13,6,0,-1
15:37:52.842311,1,1,0,-26,-23,-6,0,-2
15:37:52.850306,0,-4,-1,4,7,3,-1,2
15:37:52.865294,2,-1,1,-2,-2,-1,0,0
15:37:52.866296,-1,1,-1,-2,2,2,3,3
15:37:52.880285,-2,1,-2,-1,-3,1,-1,-1
15:37:52.887280,5,3,2,-2,1,-3,1,1
15:37:52.902274,2,0,-1,0,0,-1,-1,-3
15:37:52.910270,1,0,3,-1,-3,-1,0,-3
15:37:52.925256,0,-2,-1,-3,-3,-6,0,2
15:37:52.926259,0,-2,-1,-1,2,0,2,0
15:37:52.940251,4,-1,1,0,0,1,-1,-1
15:37:52.948246,-3,-4,-1,-28,-14,-1,-2,2
15:37:52.963236,-2,-3,0,7,7,1,-1,1
15:37:52.970231,2,-1,-3,-7,2,1,-2,3
