timestamp,emg1,emg2,emg3,emg4,emg5,emg6,emg7,emg8
18:50:43.591478,8,1,-1,10,5,-2,6,5
18:50:43.591478,0,-2,-2,-4,1,-2,4,-3
18:50:43.602475,-1,-4,-1,-2,-3,2,-5,0
18:50:43.609470,-6,-8,-1,0,1,-2,-1,-1
18:50:43.624458,1,-1,0,3,3,2,0,-1
18:50:43.625457,-2,-3,0,1,-1,-3,-9,1
18:50:43.647448,1,-2,1,-2,1,1,3,-1
18:50:43.647448,-2,-4,-1,-3,-2,-3,-2,-3
18:50:43.669431,0,-1,-2,0,0,0,-2,-2
18:50:43.669431,-3,-3,-2,-12,-6,-1,0,-4
18:50:43.684424,2,-2,-1,4,11,0,1,3
18:50:43.685419,-1,0,-2,-3,-5,1,-1,2
18:50:43.707408,0,-1,-1,-1,-2,-3,0,-4
18:50:43.707408,1,0,-5,0,-1,-3,5,5
18:50:43.729392,-1,-2,2,0,0,0,0,1
18:50:43.730395,-5,-4,-2,-4,-4,-3,-2,2
18:50:43.752378,-1,1,1,-3,-2,-1,-1,-1
18:50:43.753381,1,-1,-2,-2,1,0,1,-4
18:50:43.767369,-2,0,0,1,-3,-4,-9,0
18:50:43.767369,0,-2,-1,-1,1,3,1,2
18:50:43.789358,-1,0,-2,4,-1,-4,-15,-6
18:50:43.790357,-1,-2,0,-5,3,-2,3,1
18:50:43.804349,0,-1,0,-3,-7,1,-3,0
18:50:43.805345,-2,2,1,-2,-1,-2,-3,-4
18:50:43.827331,-2,0,0,-1,0,0,-1,1
18:50:43.827331,1,0,-2,1,-3,-2,0,-4
18:50:43.857313,-2,-3,-3,-4,-1,-1,-1,-3
18:50:43.857313,0,0,-1,-1,1,5,1,-1
18:50:43.864312,-1,2,-1,1,-3,-1,-2,-3
18:50:43.865309,-1,1,-2,-1,0,2,-2,-1
18:50:43.887295,-1,-3,-3,1,-3,-5,-1,2
18:50:43.887295,5,4,4,3,3,0,-3,-5
18:50:43.909284,0,0,-1,-3,-4,0,0,1
18:50:43.910281,-1,2,-2,2,-4,0,-1,-4
18:50:43.924275,1,-4,0,12,0,1,-6,2
18:50:43.925271,1,-2,-2,-5,-1,0,1,-2
18:50:43.947258,-3,2,0,1,-1,0,-1,-2
18:50:43.948259,0,-1,-3,-2,1,4,6,2
18:50:43.969247,-1,1,0,-2,-3,-4,-1,1
18:50:43.970243,-2,1,-1,2,-1,3,3,0
18:50:43.985235,-1,-3,2,3,3,-1,0,1
18:50:43.992233,1,-1,1,-1,-5,-3,-4,1
18:50:44.007223,2,-4,-5,-18,-7,1,0,-1
18:50:44.007223,-4,-1,-1,2,-1,-1,0,0
18:50:44.029210,0,0,-1,1,-2,-6,-3,-1
18:50:44.030206,-5,-1,1,-1,-3,3,-4,1
18:50:44.044197,-3,0,1,-1,-3,-2,-3,2
18:50:44.052195,-3,-1,-3,1,-2,0,2,0
18:50:44.067186,4,1,1,2,4,-1,-1,-1
18:50:44.068185,-4,-3,-1,-3,-5,-4,-3,-3
18:50:44.089169,1,-1,0,-1,3,5,5,-1
18:50:44.090172,0,0,0,0,-2,-4,0,-1
18:50:44.105161,1,-4,-2,0,-1,1,1,-1
18:50:44.112158,-1,-3,-5,-14,-3,-3,0,4
18:50:44.127149,-4,-1,1,8,7,-3,-1,-2
18:50:44.127149,-1,-4,-1,-6,-3,-1,-4,0
18:50:44.149133,0,0,0,0,-1,0,-2,0
18:50:44.150135,-1,-4,-1,-2,-1,-1,1,0
18:50:44.172121,0,-2,-2,-5,-1,0,-1,-1
18:50:44.173117,2,1,2,3,3,-1,-1,-2
18:50:44.187112,0,-1,-2,1,0,-2,-2,1
18:50:44.188111,-3,-2,-3,0,-2,0,-2,-1
18:50:44.209097,-2,-1,-1,-1,0,2,0,-1
18:50:44.210095,3,1,-1,8,-2,-1,0,-2
18:50:44.225086,-2,-1,0,-4,1,2,1,2
18:50:44.232081,-1,-2,-1,-1,-6,-2,15,-1
18:50:44.247075,1,1,2,-3,-4,0,-4,-1
18:50:44.247075,-1,-3,0,-1,-1,0,2,-2
18:50:44.269061,14,6,0,0,-2,3,4,4
18:50:44.270060,-1,-2,-2,-1,-6,-4,10,-4
18:50:44.285052,-3,0,2,-3,0,-1,-1,-3
18:50:44.292043,-2,-1,0,4,3,3,-1,-3
18:50:44.307037,0,-1,0,-5,-1,-2,3,5
18:50:44.308037,-1,-5,-1,1,1,0,-2,-3
18:50:44.329020,-2,-1,-4,-3,-6,-3,-2,-6
18:50:44.330023,0,-2,-2,-2,-5,-1,-2,-1
18:50:44.345013,1,3,-1,0,-1,0,-1,0
18:50:44.352009,0,-1,2,-2,-7,-4,0,-1
18:50:44.374996,-1,-1,-2,-1,-1,0,-3,-3
18:50:44.374996,1,0,1,0,0,-4,-1,0
18:50:44.396981,0,0,-2,0,-2,0,-1,0
18:50:44.397980,-5,-1,-2,2,-1,-3,-3,-4
18:50:44.404977,-2,-1,-1,8,-3,-1,3,2
18:50:44.411972,1,0,-1,-2,3,2,-11,-5
18:50:44.426963,3,0,-1,-4,0,2,8,3
18:50:44.427960,0,-1,-3,-1,0,-3,0,-3
18:50:44.449946,-2,0,0,3,1,-4,0,-4
18:50:44.449946,3,1,-2,-1,-1,1,1,0
18:50:44.464939,1,-2,-1,1,2,-1,-4,-2
18:50:44.471933,1,-3,-1,-2,-2,1,-1,-1
18:50:44.486926,0,0,2,-4,-3,-3,-3,0
18:50:44.487925,-2,-2,-2,-3,1,-2,1,-3
18:50:44.509909,1,2,1,11,2,1,-2,0
18:50:44.509909,0,-2,-1,-7,-4,-1,-4,-4
18:50:44.524902,0,-1,0,-1,-3,-1,-2,1
18:50:44.531895,-1,1,-1,-1,0,-3,3,-2
18:50:44.546889,3,-3,-4,0,-3,-1,-2,-1
18:50:44.547888,9,2,0,-2,2,1,0,1
18:50:44.569874,-7,0,-4,0,3,0,0,-2
18:50:44.569874,-2,0,-1,0,-5,-3,-1,0
18:50:44.584863,-3,-3,0,0,1,1,0,-2
18:50:44.591860,-1,-2,2,1,0,-4,1,2
18:50:44.606850,1,-1,1,11,2,0,-11,-3
18:50:44.607849,-4,-1,-2,1,3,0,0,-1
18:50:44.629834,-1,2,-1,-1,-4,1,-2,0
18:50:44.629834,1,1,-2,-1,0,-2,-1,0
18:50:44.652821,-2,-1,-1,0,-4,-3,-3,0
18:50:44.652821,-3,-1,1,-2,5,1,-1,-1
18:50:44.666814,-6,-9,-2,-3,-3,-4,-10,-7
18:50:44.667810,0,1,-2,-2,-2,0,1,7
18:50:44.689800,-4,0,0,2,1,-5,-6,-4
18:50:44.696794,-4,-4,-1,-3,-3,0,-16,-6
18:50:44.711786,2,0,3,1,2,-1,6,1
18:50:44.712782,-1,-1,1,4,4,-1,0,1
18:50:44.726777,-5,-3,-1,-7,3,2,-1,-1
18:50:44.727774,0,-1,-1,-5,-1,1,0,3
18:50:44.749760,-1,-1,-1,-1,-5,-2,0,-1
18:50:44.749760,0,-3,0,-3,-1,0,-1,-1
18:50:44.771749,0,-1,-1,-6,1,0,0,0
18:50:44.772747,-1,-3,-1,-2,-6,-5,-3,-2
18:50:44.786738,1,0,2,1,0,2,1,1
18:50:44.787739,-3,-2,-2,-1,-2,-1,3,9
18:50:44.809723,-3,-2,-4,-11,-7,-1,-3,-3
18:50:44.809723,-5,-2,1,8,5,0,-1,0
18:50:44.831709,-2,0,-2,-7,-4,0,-11,-4
18:50:44.832708,1,0,-3,-3,-5,2,3,0
18:50:44.846701,-1,1,-2,1,3,1,-1,-1
18:50:44.847700,-3,-2,-1,-1,-4,4,-5,-2
18:50:44.869685,1,1,0,-3,2,2,1,-2
18:50:44.869685,3,-1,3,0,1,0,3,1
18:50:44.891674,-2,-2,-1,-1,-1,1,-3,0
18:50:44.892672,1,4,-2,-11,-3,0,-1,0
18:50:44.907663,-4,0,2,10,4,1,-1,-3
18:50:44.914660,0,-2,1,-5,-1,-2,0,1
18:50:44.929648,-4,-3,-2,-5,-4,-2,-2,1
18:50:44.929648,3,-3,-2,0,2,-2,2,0
18:50:44.951638,0,-2,-3,1,-1,-2,-2,-5
18:50:44.952637,0,1,0,-4,-2,-1,0,0
18:50:44.967625,0,-1,-1,-4,0,-1,-1,-3
18:50:44.974623,1,0,0,1,1,0,-2,0
18:50:44.989614,-1,0,2,-2,0,0,0,-2
18:50:44.989614,0,-1,0,1,0,-3,-3,-1
18:50:45.012599,0,-3,-1,0,-1,-1,0,-4
18:50:45.012599,3,3,1,1,-1,-3,1,3
18:50:45.027590,-1,1,1,2,6,1,-2,1
18:50:45.034586,0,0,0,-3,-3,-3,-3,-1
18:50:45.049577,-1,1,-1,2,1,2,4,1
18:50:45.050576,-1,-2,-1,-3,-2,-2,-4,1
18:50:45.072562,3,2,-1,0,2,3,-2,-1
18:50:45.072562,1,1,-2,-2,-3,-4,0,-1
18:50:45.087553,-5,-2,0,0,1,-5,-13,-2
18:50:45.094549,-5,-5,-2,-2,-3,1,4,-2
18:50:45.109540,-3,-2,-2,2,1,-1,2,-1
18:50:45.110538,3,2,0,-6,-3,-3,-2,-2
18:50:45.132522,2,-3,1,-1,2,4,9,4
18:50:45.132522,-4,-3,1,-2,-1,-1,1,0
18:50:45.147513,-1,-5,-1,-2,-2,0,-1,-1
18:50:45.154508,0,-1,2,2,1,-2,-3,-3
18:50:45.169503,-1,-3,-3,0,-2,1,16,2
18:50:45.170501,-4,0,1,1,2,1,-2,0
18:50:45.191488,0,1,-2,-4,-4,-3,-1,-1
18:50:45.192485,0,-1,-2,1,2,0,-8,6
18:50:45.207476,-2,-3,-4,-3,-1,-3,2,-4
18:50:45.214474,-2,-2,-1,-12,0,3,6,7
18:50:45.229465,0,2,-1,-1,-3,1,3,2
18:50:45.229465,-7,-1,-4,-5,0,-1,-4,-4
18:50:45.252451,0,0,-3,-1,1,0,0,0
18:50:45.252451,-4,-1,-2,-1,-1,-1,-2,1
18:50:45.267442,-1,-3,-2,-2,0,-4,-2,1
18:50:45.274437,0,-5,0,-3,-4,-1,0,1
18:50:45.289428,-2,-2,0,0,-3,-2,-1,-3
18:50:45.290427,0,-1,-2,-2,-5,-1,-4,0
18:50:45.312411,-1,3,0,2,-1,1,-1,1
18:50:45.312411,-5,-5,-2,2,3,2,-2,-2
18:50:45.327401,0,-1,1,0,-3,0,0,-3
18:50:45.334400,-2,-1,1,-1,-4,-1,-3,-1
18:50:45.349388,-4,-1,0,-4,-2,-2,6,-1
18:50:45.350390,-1,0,0,-4,0,0,0,-1
18:50:45.372374,0,-1,-3,-1,-1,-1,0,-1
18:50:45.373375,-4,-3,-2,-4,1,2,-4,0
18:50:45.387367,-5,-1,0,3,2,1,4,1
18:50:45.394363,-1,-1,-1,-5,5,3,0,-3
18:50:45.409354,-3,-1,-1,-1,-4,0,0,0
18:50:45.410349,-3,-4,-2,-3,-3,-2,-1,0
18:50:45.432337,-1,-2,-2,-5,-2,0,-1,1
18:50:45.432337,0,-1,-1,0,-2,-1,0,-1
18:50:45.447330,1,0,-1,-1,3,-1,0,-1
18:50:45.454323,2,2,-4,-6,-7,-3,0,-2
18:50:45.469317,-3,1,-1,4,3,4,-2,-1
18:50:45.470316,-1,1,0,0,-1,-3,2,3
18:50:45.499298,1,0,0,11,1,-3,-4,-1
18:50:45.500297,-1,-1,-3,-5,0,-6,-2,-3
18:50:45.507290,-2,-3,-1,0,0,-3,-20,-5
18:50:45.514287,8,2,4,-3,-3,1,12,7
18:50:45.529279,-6,-3,-5,-1,1,-3,2,-2
18:50:45.530276,-1,-2,1,-1,1,-3,0,-2
18:50:45.552262,-3,-1,-2,-2,-4,-1,-1,0
18:50:45.553266,0,2,-1,2,-1,-3,-2,-1
18:50:45.574249,-3,1,2,-3,-4,-3,-1,-2
18:50:45.575251,2,0,-1,2,1,1,-2,-1
18:50:45.589242,-4,-3,0,-9,-2,1,-1,-1
18:50:45.590239,0,2,3,6,5,3,-1,-3
18:50:45.612227,-4,-2,0,-3,-4,-3,0,0
18:50:45.612227,0,1,-2,-3,1,-3,-2,0
18:50:45.634214,-1,-1,-3,-1,2,4,1,-4
18:50:45.635213,0,-2,-2,0,1,3,0,3
18:50:45.649202,-3,-2,-1,-1,-5,-1,-2,-1
18:50:45.650202,-1,0,0,1,0,1,1,-4
18:50:45.672190,-2,-2,-3,-2,2,-3,-2,-2
18:50:45.672190,-1,-1,0,8,4,1,-1,-1
18:50:45.694177,-5,-3,-3,-8,-6,-2,-1,-3
18:50:45.695174,0,0,1,0,5,1,3,3
18:50:45.709165,-4,1,0,-2,-6,-4,-2,2
18:50:45.710164,-3,-1,0,0,-1,-1,1,-1
18:50:45.732151,2,-2,-1,-1,0,3,2,3
18:50:45.732151,0,-2,0,0,-3,2,1,-2
18:50:45.754140,3,3,3,7,2,-6,-1,1
18:50:45.755136,-2,-1,-4,-3,-6,0,-4,-3
18:50:45.769131,-4,-3,-1,1,0,2,-1,-2
18:50:45.770130,0,0,-1,-3,-4,-2,0,2
18:50:45.792117,0,-1,0,-1,0,-1,0,1
18:50:45.793114,-3,-3,0,7,-1,-1,-4,0
18:50:45.814101,-4,-3,-3,-4,2,-3,-2,-1
18:50:45.815100,0,-1,2,0,-1,-2,-1,1
18:50:45.829091,-3,-2,0,-7,2,-1,1,-1
18:50:45.830093,0,-1,-2,5,-5,-2,-2,-4
18:50:45.852079,-1,-1,1,0,0,-1,-1,-5
18:50:45.853078,0,0,1,0,-4,0,0,-1
18:50:45.875062,-3,-4,-2,-14,-3,0,-2,-1
18:50:45.875062,0,0,1,3,2,-2,-3,-2
18:50:45.889055,-3,-1,-1,-6,-5,0,-2,0
18:50:45.897051,1,-3,1,13,16,-3,-3,0
18:50:45.912042,-3,-4,-3,2,6,-1,-1,1
18:50:45.913042,3,2,-3,-3,-7,-4,-1,0
18:50:45.934025,-4,-1,1,1,6,-1,-1,-4
18:50:45.935025,-1,-3,-3,-2,-2,2,2,0
18:50:45.950018,-2,-1,-2,8,2,-1,-4,-2
18:50:45.957014,0,2,-3,8,-4,-1,-1,-2
18:50:45.972005,-3,-2,0,0,3,0,2,1
18:50:45.973004,0,2,-5,-4,-3,2,2,-1
18:50:45.993989,2,-2,-1,2,4,-1,-1,2
18:50:45.994987,-4,-5,-3,-5,-3,-4,1,0
18:50:46.009978,0,-3,-1,-3,2,-2,-2,-3
18:50:46.016977,2,-3,-2,-4,-7,-1,-3,2
18:50:46.031965,-2,1,-3,-9,-45,-2,0,0
18:50:46.032964,0,1,2,1,8,-1,1,-2
18:50:46.054951,0,-1,-1,1,-1,-3,-4,1
18:50:46.054951,-1,0,-2,7,-3,1,0,0
18:50:46.069944,-2,1,1,5,2,-2,-2,0
18:50:46.076939,1,-1,0,-8,-4,-1,2,0
18:50:46.091931,-2,2,-3,-3,-2,0,-5,-3
18:50:46.092930,-2,-2,1,1,2,-4,-2,-1
18:50:46.114914,-3,-1,0,-1,-4,-2,-1,1
18:50:46.114914,-6,2,0,-3,-1,-1,-1,-4
18:50:46.129903,-3,-1,1,7,56,-1,-2,-5
18:50:46.136903,4,1,6,12,-14,-4,1,2
18:50:46.151893,-5,-7,-5,-6,9,-1,-1,-3
18:50:46.152890,-1,0,-1,-31,-20,1,1,0
18:50:46.174877,5,4,-6,21,6,3,3,2
18:50:46.174877,-9,-3,3,-23,101,12,-3,-6
18:50:46.189870,4,-2,1,-29,37,-14,-2,2
18:50:46.196865,3,2,-5,94,20,-5,5,4
18:50:46.211856,0,5,-12,-38,-128,-8,-3,-2
18:50:46.212854,1,5,-22,60,-128,-44,1,-8
18:50:46.234839,-6,7,3,42,-128,-83,-13,-16
18:50:46.234839,20,51,35,12,-128,-128,16,3
18:50:46.249829,-39,-12,17,127,-128,127,-37,-34
18:50:46.256826,-24,-77,-72,-128,-128,-57,-22,5
18:50:46.271819,1,-48,-100,-128,-128,73,13,30
18:50:46.272819,-63,-106,-74,-71,127,42,-37,-26
18:50:46.294802,49,95,21,-80,-128,62,45,43
18:50:46.294802,16,67,24,41,-66,-19,7,-13
18:50:46.309796,-21,-128,-76,3,-74,-11,-7,-10
18:50:46.316789,41,127,108,108,-53,-7,21,11
18:50:46.331781,-111,-109,-15,-128,-23,-128,-70,-85
18:50:46.332781,39,-16,-26,127,104,116,26,37
18:50:46.354765,4,84,60,-128,-128,-56,-4,-1
18:50:46.354765,43,96,64,-128,-4,-50,22,24
18:50:46.369758,-31,-9,-8,127,127,8,-14,-37
18:50:46.376750,-15,-68,-118,-128,-128,-128,-45,-11
18:50:46.391741,-49,61,127,127,-128,-128,-11,-37
18:50:46.406733,-36,-83,-53,-128,-128,-128,-36,-24
18:50:46.414727,34,110,127,127,127,127,19,13
18:50:46.414727,30,123,127,-31,-128,-95,-1,10
18:50:46.429721,-30,-128,-128,-128,127,127,9,-2
18:50:46.436714,-16,-108,-101,127,127,127,19,-1
18:50:46.459700,87,127,127,127,-77,-104,-5,14
18:50:46.459700,-66,-111,-92,127,-128,-25,-35,-26
18:50:46.474690,12,-73,-41,127,-128,-128,-9,4
18:50:46.474690,-6,51,21,-128,-128,-63,14,-8
18:50:46.489680,-72,-101,-74,-128,-128,-128,-41,-32
18:50:46.496677,-12,-84,-11,127,127,127,30,-2
18:50:46.512669,102,127,127,-128,-128,-41,10,36
18:50:46.519665,-75,-128,-64,-128,-128,-114,-41,-35
18:50:46.534655,-19,-71,-26,-123,127,127,1,-15
18:50:46.534655,40,127,127,-128,-128,-128,-16,5
18:50:46.557641,-47,-128,-78,-48,-128,-128,-20,-10
18:50:46.557641,28,9,-4,127,127,127,12,3
18:50:46.572632,20,76,122,66,-128,-128,-3,11
18:50:46.579628,-6,74,127,127,-128,-128,-19,-3
18:50:46.602614,69,127,127,58,127,-85,1,17
18:50:46.602614,32,127,127,127,127,127,11,3
18:50:46.616602,14,41,20,-128,-128,53,-4,13
18:50:46.617604,1,-6,-30,95,-11,-75,-7,-2
18:50:46.632593,-41,-81,-21,127,127,114,7,-25
18:50:46.639591,28,89,63,-23,-128,-128,-2,4
18:50:46.654581,-4,-28,-12,-128,-128,-128,-17,8
18:50:46.655578,-36,-81,-19,127,127,127,-6,-17
18:50:46.677565,22,56,42,127,72,-128,7,11
18:50:46.677565,37,106,116,-82,-128,84,24,5
18:50:46.692555,-30,-61,-92,-114,-128,-128,-34,-14
18:50:46.699553,8,63,54,58,-128,-128,-7,7
18:50:46.714544,41,127,99,127,36,-2,7,9
18:50:46.715541,6,18,15,-128,-43,-34,-6,6
18:50:46.737530,-15,-57,-108,-128,-128,-128,-13,-8
18:50:46.737530,15,6,21,84,-128,-116,15,15
18:50:46.752521,23,23,2,-102,-128,19,11,15
18:50:46.759513,-20,-44,-61,127,114,51,-1,-7
18:50:46.775505,5,-6,-13,-128,-128,-109,-3,0
18:50:46.775505,25,69,52,81,54,9,4,11
18:50:46.797490,-9,-29,-35,-124,-128,-122,-10,-2
18:50:46.797490,8,31,37,58,23,-40,-2,5
18:50:46.812484,6,7,-11,-6,-13,1,5,0
18:50:46.819479,-9,0,33,127,127,127,14,-3
18:50:46.834470,9,17,15,-90,-98,-50,-1,7
18:50:46.835469,8,-1,7,44,127,44,0,3
18:50:46.857453,-6,4,-8,-92,42,98,3,-1
18:50:46.857453,12,23,30,88,31,-1,7,5
18:50:46.872446,27,65,63,-27,81,-56,6,12
18:50:46.879442,-13,-17,21,85,49,32,3,-4
18:50:46.894433,1,1,8,39,-2,42,2,-2
18:50:46.895430,6,11,2,-44,-64,-39,-2,5
18:50:46.917418,0,-14,-20,23,52,-6,2,-2
18:50:46.917418,8,28,33,52,127,47,2,0
18:50:46.939405,4,-2,-29,-128,-128,-128,-7,2
18:50:46.940402,-9,-18,-9,-18,-128,-14,-9,0
18:50:46.954395,8,26,13,-70,-128,-118,-3,2
18:50:46.955393,-14,-17,8,83,127,29,0,-7
18:50:46.977379,5,12,6,-17,75,30,2,5
18:50:46.977379,-4,-6,5,127,127,127,7,-2
18:50:46.999364,-12,-21,-20,9,126,112,2,-3
18:50:47.000367,9,19,-4,-119,47,-38,-4,-3
18:50:47.014358,-6,-11,2,31,78,26,-2,-3
18:50:47.015355,8,12,12,-25,-76,-22,1,2
18:50:47.037341,7,10,6,-45,-106,-60,-6,1
18:50:47.037341,2,-4,1,41,-11,-9,-1,0
18:50:47.060327,10,12,-7,-55,-41,-58,0,4
18:50:47.060327,7,17,8,-47,-128,-111,0,2
18:50:47.074321,-28,-55,-42,33,-127,30,-8,-10
18:50:47.075319,4,20,18,-63,-128,-31,-2,0
18:50:47.097304,5,3,6,14,127,98,6,1
18:50:47.097304,-3,-6,-9,31,12,43,3,-2
18:50:47.112298,-3,-7,-21,-43,-128,-89,-9,0
18:50:47.119290,-7,-3,1,14,-40,-29,-8,-4
18:50:47.134284,12,14,18,79,91,31,7,4
18:50:47.135280,-6,-3,-2,-7,-18,0,1,-6
18:50:47.157266,2,11,18,-3,0,6,0,-2
18:50:47.157266,2,5,4,-10,-16,-5,-3,2
18:50:47.179256,2,5,1,-10,97,18,5,1
18:50:47.180255,0,-1,-1,-4,-19,-2,-1,-2
18:50:47.194247,-1,1,-1,-6,-11,-1,1,0
18:50:47.195243,-3,-1,-3,1,0,-6,-13,-3
18:50:47.217230,12,0,0,2,3,7,4,2
18:50:47.218232,-82,-20,8,14,17,-14,86,26
18:50:47.239218,68,52,29,18,36,44,-128,7
18:50:47.240216,1,42,16,17,16,7,127,57
18:50:47.254206,-17,66,6,-3,-3,9,-128,-9
18:50:47.255208,-128,-95,-41,-24,-35,-63,127,-34
18:50:47.277192,32,127,65,27,11,74,127,55
18:50:47.277192,-82,-26,-47,-35,-55,-52,-128,-76
18:50:47.299180,-128,-78,27,31,34,-34,127,-128
18:50:47.300179,89,91,-33,-45,-31,46,-128,115
18:50:47.314170,127,-18,20,24,31,37,-128,82
18:50:47.315171,-82,42,9,-6,7,-66,89,-65
18:50:47.337158,21,5,-8,70,2,-21,127,74
18:50:47.338157,127,-16,-118,-128,-128,-128,-128,-9
18:50:47.359141,-128,-84,-27,-128,-128,-6,127,-62
18:50:47.360141,127,-64,56,127,127,115,127,55
18:50:47.374132,127,127,31,-128,-128,-83,-128,127
18:50:47.375134,-128,18,74,127,127,-4,127,-128
18:50:47.397121,127,22,-16,-29,-105,74,-128,127
18:50:47.397121,-51,-7,-14,-43,11,11,110,-79
18:50:47.419107,63,-81,53,96,127,106,-128,127
18:50:47.420107,-128,-51,-49,-29,-128,-96,-26,-128
18:50:47.435100,127,127,51,127,127,125,-128,127
18:50:47.435100,127,46,63,36,88,127,-128,127
18:50:47.457083,-93,16,8,-43,127,53,-104,-121
18:50:47.458080,-17,5,41,127,127,127,-52,40
18:50:47.480068,-43,-17,50,-45,127,0,-7,-48
18:50:47.480068,54,6,-5,-87,-128,-6,-66,-46
18:50:47.495058,127,76,14,-15,90,127,127,52
18:50:47.495058,14,6,-5,-78,-119,-63,127,-92
18:50:47.517047,-31,-12,25,76,90,44,127,1
18:50:47.518045,-11,-16,6,9,-128,-28,9,38
18:50:47.540032,73,47,7,-58,-128,-36,-11,41
18:50:47.540032,-109,-54,-22,32,78,6,69,-48
18:50:47.555023,-9,-5,-11,-10,-83,-5,19,30
18:50:47.555023,13,-8,-13,-117,-128,-19,17,114
18:50:47.577009,127,24,2,32,42,9,-128,127
18:50:47.578006,-29,-6,28,-46,-128,-17,74,-80
18:50:47.599995,-43,-22,10,44,127,28,-17,-41
18:50:47.599995,4,-1,-13,-87,-128,70,-128,57
18:50:47.613984,-5,-3,-24,-35,48,4,10,-29
18:50:47.614983,-33,-9,4,-9,15,-15,-43,-24
18:50:47.636972,72,42,-23,-6,-80,-12,-50,2
18:50:47.637971,-41,-11,-13,-89,-107,-42,91,-67
18:50:47.659958,2,-7,6,12,-128,22,65,11
18:50:47.659958,-1,2,16,64,-128,-2,16,1
18:50:47.674948,-13,-2,10,41,-4,19,-29,-10
18:50:47.674948,-7,8,-12,-12,64,-1,-18,-9
18:50:47.704927,4,3,-9,-109,-42,-20,-2,4
18:50:47.704927,35,12,-7,30,-87,-27,-72,-39
18:50:47.719920,-11,-21,-9,1,30,3,5,1
18:50:47.719920,10,2,-10,-27,-19,-28,-21,3
18:50:47.734911,-6,-5,-8,-14,-104,-35,-27,-8
18:50:47.734911,-14,-11,-1,-8,-101,14,-37,-7
18:50:47.756898,10,-2,-3,6,-13,5,27,41
18:50:47.757897,-6,-1,-7,18,-52,-9,6,-8
18:50:47.779880,4,2,-7,-15,127,6,-5,-6
18:50:47.779880,-16,-10,-4,0,-77,-18,-19,-18
18:50:47.794873,16,5,-8,-31,0,14,-15,16
18:50:47.794873,-7,-1,8,-52,-25,-12,-6,-19
18:50:47.816861,6,-3,7,40,14,0,13,-11
18:50:47.817860,1,-9,-16,14,109,-28,-4,-8
18:50:47.839843,-3,-6,-1,-10,-128,-12,-3,-3
18:50:47.840844,1,5,-3,-30,-19,-4,-1,0
18:50:47.854836,-8,-7,-15,6,107,-6,-19,-24
18:50:47.854836,-13,-3,-2,-27,-64,2,-44,-23
18:50:47.876823,-13,-3,4,8,85,2,24,-16
18:50:47.877822,38,1,1,-55,-28,-3,10,6
18:50:47.899809,1,2,-4,15,-51,-6,9,2
18:50:47.899809,-19,-11,-1,28,16,-3,-10,-16
18:50:47.914797,1,0,-5,-15,-25,0,-5,0
18:50:47.914797,1,0,-2,-8,7,1,-13,14
18:50:47.936783,6,0,-4,-26,-22,-9,-2,-5
18:50:47.937784,32,8,9,27,35,4,10,16
18:50:47.959769,8,0,-1,5,-10,-7,-6,-1
18:50:47.959769,5,1,1,-8,-11,3,12,4
18:50:47.974765,12,7,2,-16,4,-10,7,19
18:50:47.974765,-8,-5,-3,62,127,-15,3,-8
18:50:47.996749,-3,-3,-4,-14,3,2,-16,-3
18:50:47.997745,3,3,1,-1,-6,5,7,2
18:50:48.019732,-12,-6,0,9,1,1,11,-10
18:50:48.019732,0,1,0,-5,-5,-7,0,-6
18:50:48.034725,-3,-1,-2,41,31,0,3,-4
18:50:48.035722,4,2,0,3,-21,-1,0,2
18:50:48.056711,0,-4,-4,82,127,11,-1,-2
18:50:48.057711,0,-2,-2,-9,44,0,-1,-4
18:50:48.079694,0,4,4,15,76,-6,-1,2
18:50:48.079694,-7,-4,2,16,5,-2,-9,-12
18:50:48.094686,-4,-3,-4,-3,-5,0,-1,0
18:50:48.095688,12,-3,-4,-5,-5,2,1,3
18:50:48.116671,-2,-4,-1,22,17,4,-3,13
18:50:48.117674,-6,-2,2,1,1,-3,2,-7
18:50:48.139660,2,7,-4,-31,38,-3,16,-4
18:50:48.140657,-3,2,1,0,40,2,-5,-10
18:50:48.154647,4,-6,-6,6,-74,1,-2,-4
18:50:48.154647,2,-1,-2,-75,-26,1,-3,-3
18:50:48.176635,-2,2,-4,9,8,-4,-4,0
18:50:48.184632,4,1,6,30,-1,2,6,11
18:50:48.199621,-2,-6,-5,-40,-50,-5,-2,-3
18:50:48.200627,-7,-5,-4,-1,13,2,-6,-5
18:50:48.214614,-1,2,-1,-4,-60,-10,-1,0
18:50:48.222612,0,-1,-2,-3,3,-1,1,-2
18:50:48.236599,6,2,0,-5,0,-1,2,0
18:50:48.237599,1,-2,2,19,-67,-7,-1,-3
18:50:48.259586,-3,1,0,3,-21,-1,-3,-3
18:50:48.260585,-5,-1,0,0,-5,-10,-11,-8
18:50:48.281570,12,3,-1,24,16,5,2,3
18:50:48.282572,-2,7,-6,52,111,11,5,1
18:50:48.296560,-1,3,1,-14,-1,-3,-8,-5
18:50:48.297562,0,0,0,1,1,-3,-14,-2
18:50:48.319549,0,-3,-2,10,35,3,6,3
18:50:48.320549,-4,-3,-2,-3,5,-5,0,-1
18:50:48.344531,0,-1,0,10,4,1,2,1
18:50:48.344531,-2,-3,-2,2,-48,-4,-6,-8
18:50:48.357522,1,-3,0,1,16,0,-3,-2
18:50:48.357522,-3,-6,-2,-23,2,-1,-1,-1
18:50:48.379512,-1,2,2,-2,-16,-4,0,0
18:50:48.380511,0,0,-6,-25,19,4,-4,-2
18:50:48.402497,5,-1,0,12,22,2,-3,0
18:50:48.402497,-2,1,-1,1,-4,1,4,8
18:50:48.416486,0,-3,1,-3,-4,-2,0,-4
18:50:48.417487,-3,-4,0,0,-2,-3,-2,-2
18:50:48.439474,-3,0,-1,0,8,3,0,2
18:50:48.440474,1,3,3,2,2,6,18,3
18:50:48.462459,-5,0,-1,22,9,-1,1,-3
18:50:48.462459,-1,-3,-1,-23,-128,-4,0,-4
18:50:48.477456,-4,-6,-5,2,35,2,-4,-2
18:50:48.477456,0,1,-1,-7,2,2,1,1
18:50:48.499437,-1,0,-1,-1,-1,-3,-2,-7
18:50:48.500434,0,-2,0,0,-5,-3,-2,-1
18:50:48.522425,1,-2,2,2,8,2,-6,8
18:50:48.522425,1,1,-3,-5,-3,-2,7,8
18:50:48.537412,1,-1,1,-1,-2,-1,0,-5
18:50:48.537412,1,2,6,11,-11,-1,3,1
18:50:48.559400,-2,-4,-4,-10,17,3,-3,-2
18:50:48.560396,0,1,2,6,9,-9,-1,1
18:50:48.582383,-3,-2,0,-4,-28,-9,-2,-5
18:50:48.582383,0,1,2,-7,-6,2,0,1
18:50:48.597376,1,0,0,2,-1,-4,-3,0
18:50:48.597376,1,1,0,1,3,-2,1,-2
18:50:48.619363,1,0,-1,1,3,3,1,-2
18:50:48.620362,-3,-3,-2,7,5,1,14,-2
18:50:48.642347,-1,-5,-5,17,-24,0,0,-1
18:50:48.642347,-2,1,1,10,-14,9,8,6
18:50:48.657338,-3,-1,-1,-10,4,1,-5,-2
18:50:48.657338,2,0,-1,-1,-4,4,3,2
18:50:48.679326,-1,0,-3,-1,-2,-2,-3,-4
18:50:48.680325,-2,-1,-1,-1,-1,-1,0,-4
18:50:48.702309,1,0,-3,-3,-1,0,0,1
18:50:48.703307,-5,2,1,1,0,-2,0,-5
18:50:48.717302,11,7,2,-11,-20,4,-9,5
18:50:48.718300,-3,-3,-2,4,1,-2,-1,-1
18:50:48.739288,-3,1,2,0,-1,-2,-1,-2
18:50:48.740285,0,1,-2,-11,-8,0,-9,0
18:50:48.762271,-4,2,2,-2,12,2,3,-1
18:50:48.762271,-2,-4,-3,-3,-1,-3,-1,3
18:50:48.777262,-2,-1,0,-7,-7,0,-1,1
18:50:48.777262,-3,-2,0,-1,0,0,1,-1
18:50:48.807244,-2,-6,-3,-4,-3,0,0,-2
18:50:48.808245,-2,-2,-1,2,3,-1,-3,-3
18:50:48.822234,-2,-3,2,1,-2,-3,0,-3
18:50:48.823237,-3,-2,0,0,-4,-1,-1,-3
18:50:48.837225,-4,-3,1,-3,-8,-1,0,-2
18:50:48.838225,-4,-1,1,1,1,-2,0,0
18:50:48.859214,-4,-1,1,-4,-3,1,-2,-1
18:50:48.860211,-5,-1,3,7,15,5,4,0
18:50:48.882197,1,1,2,2,-2,-3,28,8
18:50:48.882197,1,-1,-1,-27,8,2,-7,-2
18:50:48.897190,0,0,-2,-5,-3,-2,4,0
18:50:48.897190,-1,-4,-6,-2,-2,0,-3,1
18:50:48.920174,-1,0,-3,-3,0,-1,-5,-1
18:50:48.927172,-3,-3,-1,-2,-1,-3,-2,-1
18:50:48.942162,-2,-1,2,1,-2,-3,1,1
18:50:48.943162,1,0,1,2,1,-4,0,0
18:50:48.957154,-3,-1,-2,0,1,-2,-5,-2
18:50:48.958153,-2,-5,-3,-3,1,-1,-4,-1
18:50:48.979136,0,-2,-4,13,25,4,1,0
18:50:48.980139,4,1,3,-7,-5,-4,3,2
18:50:49.002125,-2,-2,0,11,5,-1,0,5
18:50:49.003125,5,0,3,-1,0,-1,-13,1
18:50:49.017116,7,3,-2,-4,-4,-4,0,-2
18:50:49.032106,-3,-4,-4,-4,-6,3,-2,-5
18:50:49.039099,-1,-1,0,-1,0,-1,-2,-1
18:50:49.040099,-5,0,0,20,10,4,4,1
18:50:49.062088,-1,-2,-1,-2,-3,-1,-2,-1
18:50:49.062088,1,0,0,0,0,-3,-2,0
18:50:49.077076,-4,-2,-3,2,8,4,-1,-2
18:50:49.085079,-3,-3,-1,-3,-4,-1,2,-1
18:50:49.100062,0,2,0,1,-1,-3,-3,-3
18:50:49.100062,2,1,-3,-3,-2,3,1,1
18:50:49.122051,5,2,0,0,4,5,5,6
18:50:49.123051,-4,-4,-1,-9,-5,1,-14,-3
18:50:49.137042,-3,-4,0,0,-32,1,2,-3
18:50:49.144037,1,-3,1,-12,2,1,6,3
18:50:49.160025,-3,-1,2,-1,4,-3,-2,-4
18:50:49.160025,-5,-2,-2,-4,-5,-1,1,6
18:50:49.182011,-2,-2,-1,-2,0,-1,-3,-1
18:50:49.183014,-1,-3,1,-3,-9,-2,-1,-2
18:50:49.197005,0,0,0,1,11,2,1,-2
18:50:49.205000,0,0,0,-1,-3,0,-2,-1
18:50:49.219987,-1,-1,-1,-4,-7,-4,-2,-5
18:50:49.219987,-1,1,-1,-13,-33,-1,3,5
18:50:49.242973,-3,-2,-3,15,15,-1,-3,-2
18:50:49.242973,-2,-3,0,-2,-4,-4,-2,1
18:50:49.256967,-4,0,0,-4,-3,-1,0,5
18:50:49.264961,-5,-3,-3,-2,-3,1,-18,-4
18:50:49.279952,-1,0,-1,0,2,1,0,-1
18:50:49.279952,-5,-3,1,0,1,-1,-4,-2
18:50:49.301940,-1,-2,-4,-1,-6,-2,-1,-1
18:50:49.302937,1,-1,-2,2,1,-3,-2,-2
18:50:49.316930,-5,-3,-3,-1,-2,3,2,-3
18:50:49.324922,-4,-2,-3,-3,1,0,1,1
18:50:49.339912,-1,-2,2,-3,2,-4,0,-4
18:50:49.339912,0,-1,-1,-26,-3,2,-3,-6
18:50:49.361902,-1,1,-1,-6,-1,2,-3,1
18:50:49.362899,-2,-1,2,-3,-1,0,-2,-2
18:50:49.384886,1,-1,0,2,4,-3,-3,-6
18:50:49.384886,-1,0,-2,-17,-6,-1,1,-1
18:50:49.399876,-4,-1,-2,4,-8,-1,-8,-5
18:50:49.399876,-1,-1,3,-5,1,-1,-1,-2
18:50:49.421865,-2,1,-2,0,-3,2,2,-1
18:50:49.422864,-5,-3,0,11,34,0,1,-4
18:50:49.444848,-3,1,1,-2,2,-4,-1,-2
18:50:49.444848,-3,-4,1,2,-2,-1,-1,3
18:50:49.459839,-3,1,4,1,-1,1,5,-1
18:50:49.459839,-3,-1,0,-2,-3,0,-1,-2
18:50:49.481826,-1,2,1,-1,0,-1,8,-1
18:50:49.482825,-1,2,-1,0,-1,2,3,2
18:50:49.504810,6,-2,-2,-1,-2,-3,2,-3
18:50:49.504810,-1,-1,-1,17,-7,-4,0,-1
18:50:49.519801,-2,-1,2,-2,8,-1,-5,-2
18:50:49.519801,-5,-3,-1,-8,-6,-4,-2,1
18:50:49.549782,-1,1,0,-2,-2,-1,-3,0
18:50:49.549782,-2,-3,-1,-4,-5,-2,-3,-5
18:50:49.564774,2,1,1,3,4,2,0,0
18:50:49.564774,-1,-1,-1,-3,-3,-1,-1,-4
18:50:49.579764,0,-2,-2,-4,-3,-4,-2,-1
18:50:49.579764,-2,-1,0,1,-2,-4,-2,-3
18:50:49.602750,-2,1,0,0,-2,-1,1,-3
18:50:49.602750,2,1,2,3,6,4,5,2
18:50:49.624739,-1,1,1,-2,-2,1,1,0
18:50:49.625735,0,-3,-3,-1,-7,1,-3,1
18:50:49.639730,0,0,1,2,7,2,-2,-1
18:50:49.646724,2,1,0,17,16,3,1,2
18:50:49.662713,-4,-3,-4,-3,12,3,0,-2
18:50:49.662713,2,-1,-2,1,4,0,0,0
18:50:49.684705,-6,-2,-2,-3,-4,2,-1,0
18:50:49.685701,-1,-1,0,0,-1,0,0,1
18:50:49.699690,1,1,-1,-2,0,-6,10,-1
18:50:49.706685,-1,0,-2,-2,-1,0,-11,-10
18:50:49.722678,1,0,-1,-3,-4,-1,2,1
18:50:49.722678,-1,-1,-3,-1,-1,-1,0,-2
18:50:49.744665,0,-2,-1,3,0,-3,-2,0
18:50:49.744665,-5,-4,-5,-3,2,1,-1,0
18:50:49.759656,-4,0,-2,-1,0,0,3,1
18:50:49.766649,-3,-2,0,-4,-9,-7,-3,-5
18:50:49.782638,0,1,1,-6,1,4,-1,2
18:50:49.782638,0,-2,-2,-3,-24,0,0,1
18:50:49.804628,-3,-2,1,-1,4,-2,0,-4
18:50:49.804628,-2,4,1,1,2,-1,2,0
18:50:49.819615,1,-3,-1,-1,-1,1,-1,-5
18:50:49.826611,1,-1,-2,-2,-2,0,-1,1
18:50:49.842604,2,2,0,-1,-5,-2,-1,-1
18:50:49.842604,2,-2,0,2,-3,-3,-2,-2
18:50:49.864591,0,-1,1,-1,-1,-5,-2,-2
18:50:49.865590,0,0,-2,-1,0,0,-1,2
18:50:49.879578,0,2,0,2,3,1,2,-1
18:50:49.887574,-5,-4,-3,-1,-4,0,-1,-2
18:50:49.909563,-1,2,0,-3,-4,0,-2,2
18:50:49.910561,-1,-4,-2,1,0,1,-1,-2
18:50:49.924553,9,2,0,1,0,-1,-1,-1
18:50:49.925551,-3,0,-2,-1,-2,-1,-2,1
18:50:49.939544,-2,-2,-4,-3,-2,-1,-1,-4
18:50:49.946539,1,0,1,-3,-3,-3,-2,-3
18:50:49.962530,1,2,-1,-2,1,-3,-17,-1
18:50:49.962530,1,0,-2,-2,3,3,4,4
18:50:49.984516,-2,-2,-3,1,-3,0,0,-4
18:50:49.985515,1,2,-1,-3,0,0,0,1
18:50:49.999507,0,-2,-1,-2,-1,-3,-2,4
18:50:50.006502,4,1,-1,-2,-2,0,-3,-2
18:50:50.022494,-4,-1,-2,2,-2,0,-3,-1
18:50:50.022494,-2,-1,-2,-1,-2,-2,1,0
18:50:50.044479,0,-2,1,0,-1,0,-1,-2
18:50:50.045479,6,3,0,6,1,4,3,1
18:50:50.059470,-1,0,-1,-3,5,2,-2,-2
18:50:50.067461,-2,0,-1,-2,0,0,-3,1
18:50:50.082452,1,0,-1,1,-3,-5,1,1
18:50:50.082452,-5,-6,-2,-2,-4,-3,0,-2
18:50:50.104442,-2,-1,-1,0,-3,0,-2,-3
18:50:50.105441,-3,-1,-1,-2,-1,-3,1,0
18:50:50.119432,0,2,1,-4,-1,0,0,-1
18:50:50.127425,-1,-5,-1,-6,-1,1,1,-3
18:50:50.142419,2,-1,-1,3,7,7,2,-1
18:50:50.142419,0,1,0,-12,-5,0,0,-1
18:50:50.164404,-4,-1,-1,-14,8,6,2,1
18:50:50.165401,-4,2,0,-26,19,-7,-3,1
18:50:50.179395,-3,-3,-1,-8,6,-3,0,-2
18:50:50.187391,-2,-1,-4,-2,-4,1,1,1
18:50:50.202378,-2,2,1,0,-9,-4,-2,-1
18:50:50.203379,-4,-4,-6,4,-40,-8,-2,-7
18:50:50.224368,0,-1,-1,2,9,5,0,-1
18:50:50.225368,-3,-1,-1,-2,0,0,-3,1
18:50:50.239358,-2,-6,-3,-4,-2,-2,-3,4
18:50:50.247350,1,0,-2,1,0,2,3,3
18:50:50.262341,-1,-5,-3,-3,-3,0,0,2
18:50:50.262341,7,4,-2,5,22,1,2,0
18:50:50.284330,-4,-1,0,1,13,-1,0,-3
18:50:50.285330,0,-1,0,-2,-3,-1,2,4
18:50:50.307313,-3,1,-4,-18,-5,1,-1,-1
18:50:50.307313,0,2,0,1,0,-2,-4,1
18:50:50.322304,-3,-2,-3,-4,-3,-1,1,-4
18:50:50.323303,2,1,2,-1,1,2,-2,0
18:50:50.344290,-2,-3,-3,-5,-8,-3,-2,-1
18:50:50.345290,0,1,0,-3,6,3,1,1
18:50:50.367275,-3,-1,-2,-1,-12,-1,2,-1
18:50:50.367275,-2,-1,-3,-4,10,0,0,0
18:50:50.382267,-4,-4,-3,6,-3,-4,-2,-1
18:50:50.383268,-2,-3,-2,-6,-9,-3,-1,-2
18:50:50.404256,5,0,-1,-1,4,-2,1,-2
18:50:50.405255,5,3,-1,-3,-4,-3,0,-2
18:50:50.427241,0,-3,0,-32,-9,-2,-4,0
18:50:50.427241,-2,-1,-1,-4,-1,2,-1,-3
18:50:50.442229,0,1,0,-4,-3,0,-3,0
18:50:50.443234,-3,0,-1,-6,-6,-4,3,1
18:50:50.464218,-2,-1,-1,-10,-32,0,-2,2
18:50:50.465215,1,-1,1,1,10,-3,-1,0
18:50:50.487202,-4,-5,1,-1,-5,-3,0,-2
18:50:50.488204,4,0,-1,2,-3,0,0,0
18:50:50.502195,-1,0,0,0,5,2,1,-2
18:50:50.509188,7,4,1,-4,-4,4,1,2
18:50:50.524181,-2,-4,0,-1,-4,-2,0,0
18:50:50.525181,1,0,0,-1,1,-2,0,2
18:50:50.547167,-1,0,2,-2,2,-5,-2,2
18:50:50.547167,-1,-4,0,-3,-2,2,0,-1
18:50:50.562158,-4,-1,0,0,2,1,0,-1
18:50:50.562158,-4,-3,-2,-3,-7,-6,-4,-1
18:50:50.592139,-1,-2,-2,0,-7,-1,1,-2
18:50:50.593139,0,-1,1,1,-3,-1,0,0
18:50:50.607127,1,1,-2,1,-1,-4,1,0
18:50:50.608129,-2,-1,-1,-12,-8,-2,-2,0
18:50:50.622121,-2,-2,-1,3,2,-1,-3,0
18:50:50.629114,-2,-1,-2,-2,-4,-1,-2,-3
18:50:50.644106,-3,-1,-3,-4,-2,-1,0,-3
18:50:50.645103,0,-1,1,0,-2,-1,-1,-4
18:50:50.667093,-7,-3,1,-1,-2,-4,-3,-5
18:50:50.668090,-1,0,-1,-4,-4,-2,2,1
18:50:50.682083,-2,2,-2,0,-5,-2,1,-3
18:50:50.689075,-3,-3,0,-3,-5,-5,-2,-3
18:50:50.704067,-2,0,1,1,5,2,-2,-5
18:50:50.705069,-2,-1,-2,-9,16,-2,-3,0
18:50:50.727056,0,1,1,1,8,0,1,-2
18:50:50.728055,0,-3,-2,0,-2,1,-4,0
18:50:50.742044,1,-4,-1,-2,-1,-2,-3,-4
18:50:50.750042,2,-1,1,26,2,-1,-1,-1
18:50:50.764029,-1,0,-2,1,13,-1,0,3
18:50:50.765030,-3,-2,-2,-6,1,2,-3,-3
18:50:50.787019,2,0,1,16,8,-1,1,1
18:50:50.787019,-6,-2,-1,-12,-40,3,-2,-2
18:50:50.802008,-2,-4,-1,5,46,3,0,-6
18:50:50.809005,1,2,1,3,-1,1,0,2
18:50:50.823993,-1,-2,0,7,-25,1,-12,-3
18:50:50.824995,1,-1,0,-5,-35,-3,10,-1
18:50:50.846981,-2,-1,-1,-5,-5,-2,2,-2
18:50:50.847977,-4,-4,-5,-35,-21,1,-3,-3
18:50:50.861969,-2,3,-1,0,14,-1,0,-7
18:50:50.869964,-12,-5,-3,-6,-4,2,0,-1
18:50:50.884958,-3,0,-3,-6,-15,-1,-1,-5
18:50:50.884958,-1,0,4,11,16,2,-2,-2
18:50:50.906944,0,2,0,0,0,2,-2,-2
18:50:50.907940,1,-1,-1,1,3,1,0,1
18:50:50.921934,-1,-2,-4,-1,-4,-2,-1,-1
18:50:50.928930,-3,-2,-1,-2,-7,-3,1,-3
18:50:50.943921,-3,-3,-3,-31,1,0,-1,-5
18:50:50.944918,-2,-3,2,-3,9,-3,-2,2
18:50:50.966904,-1,-4,-1,-10,-24,0,0,-3
18:50:50.967904,2,2,-2,13,-1,-3,2,0
18:50:50.982894,0,-1,0,-1,1,0,-5,-3
18:50:50.989890,-3,-2,-3,-6,-4,1,-4,-4
18:50:51.011879,4,2,0,2,-56,-13,2,1
18:50:51.012876,4,3,-1,-1,11,4,6,0
18:50:51.026870,0,-2,1,-14,-35,-2,-2,-2
18:50:51.027866,-1,-1,-3,1,8,1,2,-4
18:50:51.041859,-3,0,-4,-7,-10,-6,1,0
18:50:51.049852,-2,-3,0,-3,-28,-4,2,0
18:50:51.064844,-4,-1,-3,6,10,-3,1,0
18:50:51.064844,5,3,-1,-4,-3,-1,0,2
18:50:51.086832,-2,-1,-3,-5,-7,-4,0,-1
18:50:51.087832,-2,0,1,2,-2,0,-2,-3
18:50:51.102823,-4,-1,0,0,-4,-4,-1,-1
18:50:51.109816,0,2,2,0,1,1,-3,1
18:50:51.124806,-4,-5,-5,-4,-3,0,0,-2
18:50:51.124806,0,-3,-3,1,1,0,-4,-1
18:50:51.146795,-1,-2,-1,-3,9,-1,-5,-1
18:50:51.147792,-1,2,-1,1,-3,-1,0,-2
18:50:51.162784,0,-2,-1,-2,-7,-2,-4,-6
18:50:51.169778,1,-2,1,28,-34,-1,-3,-3
18:50:51.184769,-1,-1,-3,-1,12,2,0,-4
18:50:51.184769,3,-1,-1,-4,-8,1,-1,0
18:50:51.206758,0,-4,1,1,2,-5,-3,-3
18:50:51.207756,3,2,4,6,11,1,0,4
18:50:51.222749,-2,-2,-2,-3,3,5,-2,-1
18:50:51.229744,-1,-1,2,-1,-5,-3,0,1
18:50:51.244731,-4,-1,1,-3,-7,-1,-1,-1
18:50:51.244731,-1,0,-1,0,6,0,0,-2
18:50:51.266718,-1,-3,1,-2,-3,-1,-5,0
18:50:51.267720,-1,-5,0,1,-3,-1,2,0
18:50:51.289707,11,3,5,2,-36,-4,-1,2
18:50:51.290703,-5,-1,-1,33,20,-3,-6,-3
18:50:51.304694,2,0,-2,-5,1,1,0,2
18:50:51.304694,0,-1,-1,-2,-3,0,-1,-1
18:50:51.326683,-3,-1,1,1,-5,-7,-1,-2
18:50:51.327681,-1,-3,3,-9,-18,-2,-2,-1
18:50:51.349670,2,4,2,0,5,-1,-1,0
18:50:51.350668,-1,-2,0,1,2,-1,-4,-4
18:50:51.364660,-5,-2,0,0,-1,0,0,-5
18:50:51.364660,-1,-3,-2,-4,0,-1,1,-1
18:50:51.386645,1,-1,-1,0,-1,-3,0,0
18:50:51.387644,3,0,-3,0,3,1,0,-2
18:50:51.409633,-2,-1,-1,2,-20,0,-2,-1
18:50:51.410631,-4,-8,-2,-1,7,2,0,0
18:50:51.424620,0,-3,-3,-33,-12,-1,0,-1
18:50:51.431618,-1,-1,2,-1,-1,-4,0,-1
18:50:51.446609,-2,-4,-2,-3,-4,-2,0,-5
18:50:51.447607,-3,-3,-2,-2,-2,-1,-1,1
18:50:51.469595,-1,-3,-3,0,0,-1,12,0
18:50:51.470592,-1,-2,-3,-1,-3,3,1,-7
18:50:51.484586,-1,0,0,4,6,3,-13,0
18:50:51.485585,-2,-1,1,2,-4,-5,-3,-6
18:50:51.507569,0,0,-1,0,-1,-3,2,6
18:50:51.507569,0,1,-1,1,3,5,5,7
18:50:51.529558,3,-1,2,1,1,-4,-4,-4
18:50:51.530554,0,0,-1,-2,2,-4,0,-3
18:50:51.544549,-3,-1,0,-10,-37,-1,-4,-2
18:50:51.552541,-4,-3,-1,0,14,-4,0,-3
18:50:51.567534,0,1,1,0,-2,2,-1,0
18:50:51.567534,-5,-3,-2,-3,-1,0,-2,-3
18:50:51.589520,-1,-1,-2,-3,-3,-1,10,0
18:50:51.590517,-4,-8,-3,-2,-1,0,-1,-1
18:50:51.604511,2,-3,-1,-2,0,2,5,3
18:50:51.611512,0,-1,1,0,0,-2,4,-1
18:50:51.626495,-1,0,-3,-2,-3,-3,-14,0
18:50:51.627494,-1,0,-1,0,-2,0,1,1
18:50:51.649484,-1,-1,-1,-1,-1,-1,-2,-4
18:50:51.650482,-4,-1,-3,3,-9,-4,0,-1
18:50:51.664474,1,1,-2,2,10,-3,0,2
18:50:51.672466,-3,-2,-3,-8,-4,0,-1,-2
18:50:51.687457,-2,-4,0,7,2,1,0,2
18:50:51.687457,4,-3,-2,-2,-2,1,0,-1
18:50:51.709446,-4,1,-3,-2,0,-2,-1,0
18:50:51.710443,4,0,-1,0,-1,-3,2,4
18:50:51.724434,1,2,0,-2,-3,-1,-1,-2
18:50:51.732430,0,0,1,-1,2,4,2,2
18:50:51.747419,0,-2,-2,1,2,-2,0,-1
18:50:51.747419,-1,-4,-1,1,-5,-5,-2,0
18:50:51.769410,-4,1,0,-2,2,2,-2,-1
18:50:51.770409,2,0,-1,-1,-6,-3,1,2
18:50:51.784400,-5,0,-1,-4,2,-3,1,-2
18:50:51.792395,0,0,-3,-4,-6,-1,2,0
18:50:51.807386,0,-2,-1,0,-1,2,0,-1
18:50:51.807386,-3,-3,0,3,-2,4,-1,0
18:50:51.829372,9,0,2,0,-2,-1,1,1
18:50:51.830371,-5,-4,-1,-1,-5,-2,-3,-3
18:50:51.844363,1,3,1,1,3,2,0,1
18:50:51.852358,-2,4,2,-1,-3,0,1,-3
18:50:51.867348,-2,1,1,1,-1,-1,-6,-2
18:50:51.874341,1,-1,-1,-1,-1,0,1,1
18:50:51.889332,-2,0,2,2,4,-2,-3,-1
18:50:51.890334,-1,1,-3,-1,2,-3,-1,-3
18:50:51.904325,-2,-2,-4,-4,-7,4,-1,1
18:50:51.912321,-2,-4,-1,2,-3,-2,-2,1
18:50:51.927309,-4,-5,-6,-5,-4,-4,-3,-3
18:50:51.927309,-9,-1,0,-2,-5,-3,-4,-3
18:50:51.949297,-1,0,-2,0,-3,-1,6,-2
18:50:51.950295,-2,-1,-1,1,-2,1,1,-3
18:50:51.964286,0,-1,0,-1,0,0,1,1
18:50:51.972284,-5,-1,2,-2,-3,-1,2,-3
18:50:51.987271,3,1,-3,-1,-1,-1,-1,1
18:50:51.987271,-1,-1,-1,-3,-1,-3,-2,-4
18:50:52.009260,-3,0,-1,-5,-5,-4,0,-1
18:50:52.010257,2,-1,-1,-1,3,1,-1,2
18:50:52.024249,2,2,-1,1,0,3,-1,1
18:50:52.032246,-4,-4,0,-2,1,2,-2,-1
18:50:52.047237,-3,1,-3,-6,-4,-3,-3,0
18:50:52.047237,-1,0,-3,-2,0,0,0,-1
18:50:52.069223,4,1,3,2,0,1,1,2
18:50:52.070220,1,0,0,1,1,-1,-3,3
18:50:52.084211,-3,-2,-3,-2,-2,0,0,-1
18:50:52.092209,0,0,-2,-1,-5,0,1,-4
18:50:52.115193,-3,-1,-2,-1,3,-1,0,1
18:50:52.115193,2,-2,0,-1,-9,-5,-3,-2
18:50:52.129186,-1,-3,-1,0,5,1,0,-1
18:50:52.130185,-2,2,0,0,-1,0,-2,1
18:50:52.145176,0,2,2,0,2,1,-1,0
18:50:52.152172,3,-1,-1,-1,1,2,-2,0
18:50:52.167163,-3,0,-1,-1,-3,-4,-2,-1
18:50:52.168159,1,2,0,5,8,-3,4,1
18:50:52.189147,0,-4,0,-1,-2,-1,-3,0
18:50:52.190145,1,1,0,-2,0,-8,0,0
18:50:52.212135,-3,-4,-2,-2,3,2,0,-3
18:50:52.213131,-1,2,-1,-3,-3,-2,-1,-3
18:50:52.227125,-4,-2,-3,-1,0,1,2,0
18:50:52.227125,0,-3,-2,-1,-1,-1,0,-3
18:50:52.249109,-2,-6,0,-2,-2,0,-3,-2
18:50:52.250111,-2,-2,-3,1,-3,0,0,-3
18:50:52.279090,3,-4,-1,-2,-3,-1,3,4
18:50:52.280089,0,-1,1,1,0,-2,-1,1
18:50:52.287088,-2,-3,1,1,-5,-4,-3,1
18:50:52.287088,-3,-1,2,-1,-1,-1,0,0
18:50:52.309071,-3,0,0,2,-3,-3,-1,1
18:50:52.310071,-4,0,0,-1,0,-1,0,1
18:50:52.332060,0,0,-2,1,-3,-1,-3,-2
18:50:52.333057,-3,2,-1,-1,-1,0,-1,-1
18:50:52.347051,-2,-3,1,0,4,0,-1,-1
18:50:52.348050,0,1,0,-2,-3,0,-1,3
18:50:52.370036,-3,0,2,0,0,0,3,-2
18:50:52.370036,1,1,-3,-2,1,0,-1,0
18:50:52.392023,-4,-1,-2,-1,-3,-3,-4,0
18:50:52.393020,0,1,0,-1,-4,-3,2,-2
18:50:52.407014,8,0,-2,-4,1,-1,1,0
18:50:52.408010,-2,0,0,2,-2,-1,0,0
18:50:52.428997,-2,-3,0,-2,-4,-2,0,1
18:50:52.429998,-3,0,2,2,-3,-8,-2,-6
18:50:52.451986,-2,1,2,-15,-1,-4,0,-2
18:50:52.452983,0,-1,0,3,-2,1,0,2
18:50:52.466977,-1,-3,-2,-2,0,3,-1,2
18:50:52.467973,0,-2,0,-3,-3,-1,-1,0
18:50:52.488960,1,1,2,1,2,-1,-2,0
18:50:52.489962,-1,-1,1,0,-1,1,1,-2
18:50:52.511948,1,2,2,0,-1,-1,1,1
18:50:52.512948,-3,-1,1,0,0,-1,-6,-2
18:50:52.526940,0,0,-2,-1,1,1,0,3
18:50:52.527936,0,3,0,-1,-1,-5,2,3
18:50:52.549925,-2,-2,-3,0,1,0,0,-1
18:50:52.549925,-2,0,1,4,3,-3,-3,-3
18:50:52.571911,-5,-3,-2,-3,-5,-3,1,-4
18:50:52.572910,-3,-3,-2,1,-3,0,0,-2
18:50:52.586899,-3,-7,-1,-5,-3,0,-1,-3
18:50:52.587898,-3,-4,-4,-4,-2,-2,-2,-1
18:50:52.609887,-3,-2,0,0,1,-3,1,-1
18:50:52.609887,1,-2,-1,0,0,0,-1,0
18:50:52.632871,-2,0,-1,1,-1,0,1,0
18:50:52.632871,1,-2,2,-2,-5,0,-1,-1
18:50:52.646865,2,2,1,-4,4,1,0,-1
18:50:52.647861,-3,-2,-2,-2,1,0,0,-6
18:50:52.669848,-2,0,-4,-17,-7,-6,0,0
18:50:52.669848,-3,-1,-1,4,2,1,0,0
18:50:52.692834,0,-1,-2,-2,-3,-2,0,1
18:50:52.692834,-1,-3,-3,1,-3,0,-3,-4
18:50:52.706828,7,1,-2,-1,0,2,-3,-1
18:50:52.707824,-4,1,-1,-3,-2,0,-1,0
18:50:52.729812,0,0,3,1,3,5,2,-1
18:50:52.729812,-2,-1,-1,-2,0,-2,-1,0
18:50:52.751800,1,-4,-1,-6,-7,-1,0,-2
18:50:52.752799,1,1,0,-1,0,-1,0,1
18:50:52.766791,0,1,-1,1,0,2,1,0
18:50:52.767790,-2,-3,-3,0,-3,0,-1,-3
18:50:52.789773,-1,-1,-1,-3,2,0,-1,-1
18:50:52.789773,-3,2,-2,-1,1,-3,-1,0
18:50:52.812760,-1,-2,-2,-1,-1,0,-2,1
18:50:52.812760,-2,1,-2,-3,-1,-3,2,-1
18:50:52.826753,0,-3,-2,-3,1,-2,-2,0
18:50:52.827750,-3,-1,1,-3,-5,-3,-2,-2
18:50:52.849736,-6,-4,-1,2,3,2,-2,0
18:50:52.849736,0,1,-2,-1,-5,0,-1,1
18:50:52.871723,-2,-2,0,13,3,-1,0,-1
18:50:52.872725,-2,-1,-1,-3,1,-1,-3,0
18:50:52.886714,0,-2,0,-1,-4,1,0,-1
18:50:52.902707,0,-2,2,-2,1,-1,-1,1
18:50:52.909702,-2,0,0,-2,-6,0,0,-5
18:50:52.909702,-1,0,1,0,0,0,-1,2
18:50:52.932686,-1,0,1,0,-3,0,-3,-1
18:50:52.932686,-3,-1,-1,-2,-2,-4,-2,0
18:50:52.954671,-2,-1,-6,-5,-6,-3,-2,0
18:50:52.954671,1,1,-1,1,0,3,-2,0
18:50:52.969666,-2,-2,-3,-2,5,-2,-1,-1
18:50:52.970662,-1,-1,-2,-2,2,-3,-4,-3
18:50:52.992647,1,2,0,2,3,2,2,3
18:50:52.992647,-1,1,1,1,4,2,-1,-1
18:50:53.014634,3,-1,1,1,0,0,0,1
18:50:53.015637,2,0,2,-2,1,0,-1,-1
18:50:53.029628,-2,-5,-1,-1,1,0,-2,-1
18:50:53.029628,2,0,-1,-4,-1,-3,-4,-3
18:50:53.052613,-1,-2,-3,0,-1,-1,3,2
18:50:53.052613,3,-2,-1,0,6,2,-1,1
18:50:53.074596,0,1,-1,-13,-5,2,-6,-1
18:50:53.074596,-3,1,-2,4,-2,1,-1,-2
18:50:53.089591,-3,2,1,-6,-2,-2,2,-2
18:50:53.089591,-5,-2,1,0,0,-4,1,-3
18:50:53.112573,0,-1,-2,-2,-2,-6,1,1
18:50:53.112573,-4,-1,-1,-2,0,1,3,0
18:50:53.134563,0,-3,-1,0,-6,-3,-1,-2
18:50:53.135560,-4,-4,-1,-3,-3,2,-2,-4
18:50:53.149552,-1,-3,-2,-1,1,4,-4,-2
18:50:53.150550,5,1,-1,2,-1,0,1,2
18:50:53.172536,3,1,1,0,2,0,0,-2
18:50:53.172536,-3,-2,-1,-2,-5,-2,-2,-3
18:50:53.194525,-2,0,-1,2,5,-2,0,1
18:50:53.195522,-2,-1,-1,3,2,0,-4,-3
18:50:53.217509,-2,-3,-2,-1,-4,-3,1,-2
18:50:53.217509,-1,-2,-1,0,-4,0,-1,1
18:50:53.232498,-4,1,0,1,1,3,1,0
18:50:53.233500,-4,-4,-3,0,-1,-1,0,-2
18:50:53.254488,-3,0,2,-3,-4,0,0,-2
18:50:53.255486,4,6,4,0,3,1,1,1
18:50:53.269476,2,-1,-4,-3,0,-2,-3,-3
18:50:53.270478,2,2,2,-3,-1,-1,-1,-1
18:50:53.292464,4,0,-1,-3,-9,-3,0,1
18:50:53.292464,4,-2,1,0,0,-1,2,3
18:50:53.322446,0,0,-2,-5,-3,1,-1,-5
18:50:53.322446,1,0,0,-4,-5,-2,-3,-1
18:50:53.329442,4,0,-2,-1,1,-1,-1,-1
18:50:53.337434,-6,0,-3,-3,-3,-2,-1,0
18:50:53.352425,4,0,0,2,-2,-2,2,-1
18:50:53.352425,-5,-2,2,-1,-1,-2,-3,-3
18:50:53.374414,1,0,-1,-2,-1,2,-1,1
18:50:53.375410,-7,-2,-1,-1,-3,-3,0,-3
18:50:53.389404,-1,1,-2,-1,-4,0,-1,-2
18:50:53.390404,-2,-1,-1,-11,-4,3,1,-3
18:50:53.412388,-1,-1,-1,4,1,3,-6,0
18:50:53.412388,-1,1,-2,-3,-3,0,0,4
18:50:53.434377,0,0,2,-1,-2,0,0,2
18:50:53.435373,1,-1,-2,0,0,1,-2,-1
18:50:53.449367,-1,2,0,1,1,2,-1,2
18:50:53.450367,0,3,-1,0,-1,-6,-4,-3
18:50:53.472354,-2,-3,-1,0,5,1,-2,-4
18:50:53.472354,-2,-2,0,-2,-4,-1,-2,-3
18:50:53.494339,-1,2,0,0,-1,-1,-4,2
18:50:53.495339,-2,1,0,-1,5,3,-2,-4
18:50:53.509330,-1,-3,-1,2,-2,-2,0,-1
18:50:53.510332,3,4,1,-2,-1,3,1,1
18:50:53.532313,-2,-1,-1,11,3,-1,-1,-1
18:50:53.533314,-1,-2,1,-1,1,1,2,3
18:50:53.554302,-4,-3,-1,-2,-4,-4,-1,0
18:50:53.555302,0,-2,1,1,-2,-1,-1,-1
18:50:53.569293,5,4,0,-1,5,1,-2,0
18:50:53.570289,1,-3,0,-2,-8,-4,-4,-3
