timestamp,emg1,emg2,emg3,emg4,emg5,emg6,emg7,emg8
18:57:47.167778,0,-2,-2,-1,1,0,-2,-2
18:57:47.167778,0,0,-3,-2,-1,-3,-1,-2
18:57:47.180771,-2,0,1,-2,1,0,-2,1
18:57:47.187766,0,-4,-1,-2,0,-1,-2,2
18:57:47.204756,0,-3,-2,-2,-4,-1,1,0
18:57:47.204756,1,-1,0,-1,0,-1,-2,-5
18:57:47.227743,-2,-3,0,-4,-2,0,-3,0
18:57:47.227743,0,1,1,-1,-1,2,0,-1
18:57:47.240734,-1,0,0,0,-2,-1,-1,1
18:57:47.248739,-1,1,0,-2,-2,-4,-1,-3
18:57:47.263718,0,0,-1,-3,-4,-2,0,-2
18:57:47.263718,-1,-3,-5,-1,-1,1,-1,1
18:57:47.285706,-2,0,-2,-2,-2,-3,-2,-2
18:57:47.285706,-1,-2,0,-1,-1,0,0,-1
18:57:47.300696,-1,0,-3,0,0,-2,-1,-3
18:57:47.307697,0,-2,-1,-2,0,-3,1,1
18:57:47.322685,0,-2,0,2,0,0,-3,0
18:57:47.323681,0,0,-2,1,-1,-1,-1,-1
18:57:47.345671,-3,-2,-3,-3,-1,-1,-3,-3
18:57:47.346670,-3,-2,-4,0,-5,-3,-3,-3
18:57:47.368654,0,1,3,-2,1,-2,-2,-3
18:57:47.368654,-1,-3,-3,0,-1,-1,1,0
18:57:47.383648,-1,-2,0,-1,2,0,1,-2
18:57:47.390642,-3,-3,0,-2,-2,1,0,0
18:57:47.405634,-1,-1,-2,0,-1,-2,-2,-4
18:57:47.406631,-2,-3,-2,-1,-1,-1,-1,0
18:57:47.420621,-1,0,0,1,1,0,1,-2
18:57:47.428620,0,0,-3,-1,-1,1,0,-1
18:57:47.443607,-1,2,2,-1,0,-2,-1,-3
18:57:47.444610,-3,0,-1,1,0,1,2,0
18:57:47.465596,-1,2,0,2,2,-3,-1,-3
18:57:47.466593,0,1,3,0,1,-5,-3,-2
18:57:47.481584,-4,-4,-4,-2,-1,-4,-2,-3
18:57:47.488580,1,0,2,0,-1,1,0,1
18:57:47.503573,2,0,-1,0,-1,0,-3,-2
18:57:47.504570,0,0,-4,-1,1,-1,0,-3
18:57:47.525558,-2,0,-1,-1,0,0,0,-2
18:57:47.526556,-1,-1,2,0,1,0,-1,-3
18:57:47.540548,-2,1,-1,1,-1,-2,-4,-1
18:57:47.548545,-3,-3,-1,0,-1,2,1,2
18:57:47.563536,9,4,-1,-3,-4,-2,-1,2
18:57:47.564532,-2,-4,0,-1,1,0,0,-3
18:57:47.585519,-2,2,-1,-1,-1,0,-1,-2
18:57:47.586519,-2,0,-1,0,1,1,0,0
18:57:47.601513,3,0,2,2,0,0,0,2
18:57:47.608508,-1,-3,0,-2,-1,0,-2,1
18:57:47.623499,1,-3,-3,-2,-3,-2,1,-5
18:57:47.623499,0,0,-3,-1,-5,1,1,-4
18:57:47.646483,-1,0,-2,0,-1,-1,0,0
18:57:47.646483,-2,1,-1,-1,-2,-3,-2,1
18:57:47.661475,1,-1,1,0,3,3,-2,0
18:57:47.668471,2,-1,1,-2,-2,0,3,0
18:57:47.683462,-1,-1,1,-2,-3,-4,-2,-2
18:57:47.683462,-1,2,-1,0,-2,-2,-1,0
18:57:47.706444,1,0,1,2,4,1,-2,1
18:57:47.706444,1,0,-1,0,-3,0,-1,-2
18:57:47.721439,-1,0,0,-1,-1,0,0,-4
18:57:47.736426,0,0,1,0,0,1,3,0
18:57:47.743424,1,0,0,2,0,-3,-1,-4
18:57:47.744422,0,1,-1,0,1,1,0,1
18:57:47.765408,-2,-2,-1,-1,-2,-2,0,0
18:57:47.766409,1,2,-1,-1,-3,3,-2,2
18:57:47.788397,-3,-2,-3,0,-2,-1,1,-3
18:57:47.789393,-1,-3,-1,0,-1,2,0,-1
18:57:47.803387,0,0,0,-2,-1,2,0,1
18:57:47.804387,0,0,-3,-2,0,-2,-1,0
18:57:47.826370,1,-2,-3,-1,-4,0,1,0
18:57:47.826370,0,-1,-1,2,-2,-6,-2,-3
18:57:47.848360,-1,0,-2,-2,3,-1,-1,-1
18:57:47.849356,-2,0,-1,0,-3,1,1,-1
18:57:47.863350,-1,2,1,1,-1,1,-2,0
18:57:47.864348,0,-3,-1,-2,-1,-1,-3,0
18:57:47.886335,-2,-3,-1,0,1,1,2,0
18:57:47.886335,-1,0,0,-5,0,1,-3,-2
18:57:47.908322,-2,0,-2,-1,2,-1,-2,-2
18:57:47.909318,-3,1,1,0,-1,-1,-1,0
18:57:47.923313,0,-1,0,0,-2,2,-1,-1
18:57:47.924309,4,-2,0,1,4,-3,-2,-1
18:57:47.946297,-3,-4,0,-1,-1,0,-1,0
18:57:47.946297,1,-1,-1,-3,-1,0,1,0
18:57:47.968285,-1,-1,1,-4,-3,0,1,-3
18:57:47.969285,-2,2,-1,0,0,-3,-1,0
18:57:47.983276,-2,1,-1,2,2,-1,1,-2
18:57:47.984275,-1,-1,0,-1,-3,-3,-2,2
18:57:48.006258,-2,-3,-1,0,-1,-1,-2,-1
18:57:48.013257,-1,0,0,2,-1,2,1,-1
18:57:48.028248,1,-1,-1,3,-4,0,-1,0
18:57:48.029245,0,0,-4,-1,-3,-2,2,-1
18:57:48.043238,2,0,0,1,1,2,-1,-2
18:57:48.044237,1,1,-3,1,1,0,-2,-1
18:57:48.066222,2,0,-1,-3,-3,-2,-1,-2
18:57:48.066222,2,-1,2,-1,0,0,0,0
18:57:48.088211,3,-1,0,-3,-3,-3,-3,1
18:57:48.089210,-1,2,-2,0,-2,-3,-1,0
18:57:48.103201,0,0,0,0,-3,1,-3,-2
18:57:48.104200,-1,-3,0,-3,0,0,-1,-1
18:57:48.126185,-1,0,-3,0,-2,-1,-4,-1
18:57:48.127184,-2,-3,-2,0,-2,0,-1,1
18:57:48.148173,-5,0,-2,-3,-2,1,1,0
18:57:48.149170,-2,0,-2,-1,2,-1,2,0
18:57:48.163161,-1,-1,2,0,0,1,-2,-4
18:57:48.171159,0,-3,0,-1,-4,0,-2,-4
18:57:48.186147,0,-1,-1,-1,0,-1,-2,1
18:57:48.187146,-1,0,-1,-2,1,1,-2,-1
18:57:48.208136,-4,-3,-2,0,1,-2,2,-2
18:57:48.209136,-1,0,-1,-2,0,0,-5,1
18:57:48.223125,-2,-1,-2,-2,-3,0,1,-3
18:57:48.231122,1,-3,-1,-1,-1,-3,0,1
18:57:48.246111,-1,-2,0,0,1,0,-1,1
18:57:48.247110,-1,0,-2,-2,-2,-2,0,-3
18:57:48.268099,0,0,0,1,-1,-2,1,-1
18:57:48.269098,1,-3,-1,-1,-1,-1,1,2
18:57:48.283090,2,0,-1,-1,-2,-1,0,-1
18:57:48.291085,-2,-2,2,-1,-1,0,-3,-3
18:57:48.306073,1,1,-3,-2,-3,1,-4,-2
18:57:48.306073,-2,1,-1,1,-2,-1,-3,-1
18:57:48.329058,-3,-3,-3,-1,-2,2,-1,-1
18:57:48.329058,-2,-3,-3,0,3,-4,-3,-3
18:57:48.343052,-2,0,-3,1,-1,1,0,-2
18:57:48.351048,2,1,1,-1,1,0,0,3
18:57:48.366035,-4,-2,-2,0,1,1,-4,-3
18:57:48.366035,1,1,-1,0,2,-1,-1,0
18:57:48.388024,-1,-1,0,1,-1,1,-4,1
18:57:48.389024,0,-3,2,0,0,0,1,2
18:57:48.403013,0,0,1,0,-3,1,0,-1
18:57:48.411010,-2,-2,-2,0,-2,-2,-1,-4
18:57:48.425998,-3,2,-2,0,1,-2,-1,-5
18:57:48.427001,-2,-3,0,1,-3,-3,3,2
18:57:48.448984,0,-1,-1,0,2,-3,-1,2
18:57:48.448984,-1,-1,0,-1,1,2,0,-2
18:57:48.470974,-1,-1,-4,-2,-1,-2,-2,-1
18:57:48.471971,-2,1,0,1,2,-4,-2,0
18:57:48.485961,-4,-1,1,-1,-1,0,0,0
18:57:48.486963,2,-1,0,-2,-1,0,-2,-3
18:57:48.507948,-4,-3,-1,0,-1,-1,-3,1
18:57:48.508947,0,0,0,0,-3,0,-2,-1
18:57:48.522940,0,1,-2,-3,-1,-1,0,-2
18:57:48.530936,-4,-1,-1,-1,0,-1,-2,2
18:57:48.545927,-1,-3,-2,1,-3,-3,0,1
18:57:48.546924,-1,-1,0,-4,-2,2,-1,-2
18:57:48.568909,1,-2,1,-1,-3,0,-3,-1
18:57:48.568909,-2,-1,0,0,0,0,-1,-1
18:57:48.583903,-1,-1,-2,-1,-4,0,-1,-1
18:57:48.590899,-1,-2,1,1,-1,0,-4,-2
18:57:48.605890,0,0,1,-2,-1,-1,-1,-1
18:57:48.606890,-2,-1,0,0,-1,-1,-3,-2
18:57:48.628874,4,0,-3,-1,2,0,0,-1
18:57:48.628874,-1,1,-1,1,-3,2,-3,2
18:57:48.643866,-1,3,-3,1,-5,0,-2,2
18:57:48.650862,-2,0,-3,-2,-2,-1,0,-1
18:57:48.665852,-1,1,-2,-5,-6,-4,-1,-2
18:57:48.666852,1,0,-1,1,1,1,1,-1
18:57:48.688837,-1,-1,2,-3,1,-1,2,-1
18:57:48.688837,-2,-2,-1,0,-3,-1,2,-4
18:57:48.703829,-4,-1,-2,0,0,-2,-3,-3
18:57:48.710824,-3,-1,1,-1,-1,1,0,3
18:57:48.725815,-5,-3,-1,-5,-2,1,1,-1
18:57:48.726812,1,-1,-1,0,0,-3,-2,0
18:57:48.748798,0,-1,-2,-2,-1,-2,-3,-1
18:57:48.748798,-3,0,-1,-1,-1,0,-1,-1
18:57:48.763788,-4,-1,0,-1,1,-2,-3,0
18:57:48.770787,0,-2,1,-1,0,-2,1,2
18:57:48.785778,2,-3,0,-1,0,-3,-2,2
18:57:48.786774,-1,-4,-4,1,0,-2,1,-2
18:57:48.808763,-3,4,-3,-3,-1,0,-3,0
18:57:48.808763,1,0,-2,0,-1,0,0,0
18:57:48.838744,-4,2,2,1,2,1,2,1
18:57:48.838744,0,-2,-1,1,0,1,0,-1
18:57:48.845741,-1,-2,-2,-2,1,0,0,-1
18:57:48.846737,0,-1,-3,0,-1,-1,-3,0
18:57:48.868726,5,-1,-1,-1,-2,0,1,-1
18:57:48.868726,1,-1,-2,0,3,-2,2,1
18:57:48.890713,-2,-2,-2,-3,-3,0,-2,0
18:57:48.891712,-1,0,-1,-3,0,-2,-3,-3
18:57:48.905704,0,1,-3,-1,-5,-1,1,1
18:57:48.906702,0,-4,-2,0,-1,0,0,2
18:57:48.928686,0,1,1,-2,1,-1,-5,-1
18:57:48.928686,-3,-2,-1,0,2,1,1,0
18:57:48.950676,1,0,-4,-3,-2,-4,-3,-1
18:57:48.951672,-1,-3,-3,2,-1,2,-1,1
18:57:48.965667,-1,0,1,1,0,-1,0,-1
18:57:48.966663,-2,-2,-1,-1,-1,-1,-2,-3
18:57:48.988649,-1,-1,-1,-1,-1,-1,-2,2
18:57:48.988649,-1,1,0,-1,-1,0,0,-5
18:57:49.010648,-1,-3,-3,-2,1,1,1,1
18:57:49.011637,-3,1,-1,-1,0,1,1,0
18:57:49.025626,0,1,0,-2,-4,-1,0,0
18:57:49.026626,-2,0,-3,-3,-2,0,-2,1
18:57:49.048612,-1,-4,2,-2,-3,-3,-1,0
18:57:49.048612,-2,2,-5,0,0,-1,1,1
18:57:49.070601,1,0,-1,0,-2,-3,-2,1
18:57:49.071598,0,-2,-2,-3,-4,-1,-1,1
18:57:49.085589,-2,-2,0,1,0,-3,-1,-1
18:57:49.093584,-3,-3,-3,-2,-1,0,-3,1
18:57:49.108578,1,-1,1,-2,-2,1,0,3
18:57:49.109574,-1,1,1,-3,1,-3,0,-1
18:57:49.131561,-2,-3,-3,0,1,1,-2,0
18:57:49.131561,-2,1,2,-1,0,-1,2,-2
18:57:49.145552,-4,-1,-1,-1,-3,-1,-5,-3
18:57:49.153547,0,3,1,0,-2,-3,-4,-1
18:57:49.168541,3,0,0,1,3,1,2,3
18:57:49.168541,-2,-4,-2,-1,-3,-1,-3,-3
18:57:49.190528,-5,-3,-3,1,-4,-2,1,-2
18:57:49.191523,1,-4,-4,-1,-1,-1,-1,-1
18:57:49.213509,1,0,1,-1,-2,-2,-1,-1
18:57:49.213509,-5,-3,-1,-1,2,0,-1,-1
18:57:49.228504,-1,0,-1,-3,-3,-1,0,-1
18:57:49.229502,-2,2,-2,-5,-3,-1,-1,-2
18:57:49.250486,0,0,0,0,1,1,0,0
18:57:49.251486,0,-2,1,0,-1,-1,1,0
18:57:49.273475,0,-2,-1,-1,-2,-3,-1,0
18:57:49.273475,-2,-2,0,-4,-1,-1,-3,-2
18:57:49.288467,2,2,1,-1,0,-3,0,0
18:57:49.288467,-1,-1,-4,-1,0,-1,-1,-1
18:57:49.311452,0,-2,1,0,0,-1,0,3
18:57:49.311452,-2,0,-2,-1,0,-1,-2,-1
18:57:49.333438,-1,-1,1,0,-1,-1,0,-2
18:57:49.334435,-2,-3,-1,0,0,-1,-1,1
18:57:49.348429,0,-1,-3,-2,-2,-2,0,-1
18:57:49.349431,-1,1,0,-1,-3,-1,-4,0
18:57:49.371412,-1,0,-1,-1,0,2,-2,0
18:57:49.371412,-4,-1,-2,-2,-1,0,-3,4
18:57:49.393401,6,-1,0,-2,-4,-2,-1,0
18:57:49.394398,-2,0,1,-3,-2,-3,0,-1
18:57:49.408392,2,-1,-1,3,-4,-2,-2,0
18:57:49.409391,-1,-2,0,-2,-3,-4,-1,0
18:57:49.431375,-1,-2,0,-3,1,-1,-1,0
18:57:49.431375,-3,-1,-1,-2,0,-2,-3,-3
18:57:49.446365,1,-2,-1,-1,0,1,0,-2
18:57:49.453364,1,0,1,0,-2,1,-3,-1
18:57:49.468355,-1,-3,-1,-2,-3,-2,-1,0
18:57:49.476347,-3,1,-3,1,-3,-4,-1,-1
18:57:49.490341,3,3,0,1,-2,-2,-2,4
18:57:49.491339,-2,-3,-1,0,0,-3,-1,0
18:57:49.513327,-2,1,0,3,1,-1,-1,-2
18:57:49.514323,0,-6,1,2,-2,0,-2,0
18:57:49.528318,-1,-2,1,-1,-3,0,-3,-1
18:57:49.529316,1,-1,-1,-4,-3,-3,-2,0
18:57:49.551303,1,-3,-1,-4,-1,0,-2,-2
18:57:49.551303,-4,-2,-2,-1,0,0,-2,0
18:57:49.573289,-2,1,-3,-1,-4,-4,-1,-2
18:57:49.574286,-2,2,-2,4,0,-1,-3,-2
18:57:49.588281,0,1,-3,-2,-2,0,-1,-3
18:57:49.589279,-1,-2,0,0,-1,-1,1,-1
18:57:49.611263,-1,1,1,-3,-1,-2,-4,-1
18:57:49.611263,-6,-4,-2,-1,0,1,1,-2
18:57:49.633252,-3,2,-2,0,-2,-2,-2,-1
18:57:49.634250,-1,0,1,2,0,0,1,3
18:57:49.648243,4,-2,1,-1,-3,-4,-1,-1
18:57:49.649241,4,-1,-3,-2,-1,-3,0,-2
18:57:49.671228,11,-1,-3,-4,-3,-7,0,-1
18:57:49.671228,-5,-3,-3,-1,-1,2,-3,-3
18:57:49.693215,9,2,0,0,-3,-3,-2,1
18:57:49.694212,-5,-4,-2,-1,-2,-3,-5,-3
18:57:49.708206,3,0,2,2,2,-3,2,2
18:57:49.716201,-3,-3,0,-3,-2,0,-2,-3
18:57:49.731189,-1,1,-2,-4,0,-1,0,1
18:57:49.731189,-1,-1,0,0,-4,-2,-3,-4
18:57:49.753178,3,-1,1,0,-2,-5,-1,0
18:57:49.754175,9,1,-1,0,0,0,1,-2
18:57:49.768169,-1,0,1,-5,-4,3,-2,-2
18:57:49.769167,1,0,-3,-2,-1,-3,-5,-3
18:57:49.791151,0,1,0,1,0,2,2,4
18:57:49.792150,-1,-3,-2,0,-4,-2,-4,1
18:57:49.813141,0,0,1,-1,-2,-2,3,0
18:57:49.814137,0,-1,0,1,-1,-5,0,0
18:57:49.828132,-2,-4,-4,-1,1,-4,-1,-2
18:57:49.829128,4,1,-3,0,-4,-2,2,-1
18:57:49.851117,-1,2,-1,0,1,2,-1,2
18:57:49.852114,3,2,-2,1,-2,-4,-1,0
18:57:49.873104,-2,-3,1,-3,-2,-1,0,-2
18:57:49.874103,2,-2,-2,-1,-2,0,1,-2
18:57:49.888094,-3,-1,0,-1,-1,-1,-5,-1
18:57:49.889093,-1,-2,-1,-2,-3,0,0,-1
18:57:49.911080,-2,1,-1,-3,0,1,0,1
18:57:49.911080,2,1,0,1,-1,-3,-4,-3
18:57:49.941062,-3,-3,0,0,-3,-1,-4,-4
18:57:49.941062,-2,-2,-3,-2,-1,0,-1,-2
18:57:49.948057,1,-2,-1,-2,-1,-2,-1,-3
18:57:49.949056,0,-3,-2,-1,0,1,2,0
18:57:49.971043,0,2,-2,-2,0,0,0,-3
18:57:49.972043,0,-2,-3,0,-4,-3,-4,-2
18:57:49.993027,-3,-3,0,-2,0,-8,-4,-5
18:57:49.994026,-6,-6,-6,-4,-3,0,1,-4
18:57:50.008019,-3,-4,-2,-1,1,6,0,-1
18:57:50.009019,1,1,-1,-2,-2,1,-2,0
18:57:50.031006,2,-2,-2,-1,-1,-4,-2,1
18:57:50.032005,-1,1,-1,-2,-2,0,-3,-1
18:57:50.052989,-2,-2,-2,-1,-3,-1,2,1
18:57:50.053991,-3,-4,0,-1,-3,-3,-1,-1
18:57:50.067979,-7,-5,1,-2,1,0,4,-5
18:57:50.068982,7,-2,-2,1,0,-3,-2,1
18:57:50.090969,-10,-4,0,1,2,0,-1,-2
18:57:50.090969,-1,0,2,0,4,0,0,0
18:57:50.112953,-2,-1,1,-3,-1,0,0,-2
18:57:50.113951,-6,0,-1,-2,3,0,-1,-1
18:57:50.127943,-2,0,-1,1,1,3,-2,0
18:57:50.135941,0,-1,1,0,3,1,-1,-1
18:57:50.150931,1,3,1,0,1,-3,0,-1
18:57:50.150931,3,1,1,2,0,-3,-2,5
18:57:50.173914,-4,0,-1,1,-1,-1,-2,-5
18:57:50.173914,-3,-2,-2,0,-2,-2,0,-4
18:57:50.187906,-2,-2,1,2,3,-1,0,0
18:57:50.188906,-6,-4,-2,-2,0,2,5,0
18:57:50.210893,-2,0,0,-2,-1,-8,-4,-4
18:57:50.211891,-1,-1,-2,0,-4,0,-1,1
18:57:50.233877,-6,-3,-3,-3,-3,-3,-2,0
18:57:50.233877,-6,-3,-3,-1,3,-7,-2,-1
18:57:50.248870,1,-1,0,0,-1,-1,-3,0
18:57:50.248870,3,0,-3,1,0,-4,-3,-1
18:57:50.270857,5,1,1,-2,1,-2,0,4
18:57:50.271856,-3,-6,-1,0,-2,0,3,-2
18:57:50.293840,-1,-2,0,-1,-4,-2,-3,-2
18:57:50.308830,-1,0,-1,0,0,0,1,-2
18:57:50.308830,-2,-3,1,-2,-4,-4,-2,-2
18:57:50.309829,-1,-1,-2,-1,-1,1,-1,-3
18:57:50.330820,1,0,-3,1,-1,1,-1,-3
18:57:50.331816,-2,0,-5,2,-1,-1,-3,-1
18:57:50.353802,-3,-3,1,-3,-2,-2,-1,1
18:57:50.353802,0,-1,-1,-3,0,0,0,0
18:57:50.367796,-5,-3,0,4,0,0,-4,-5
18:57:50.375792,1,4,4,3,-3,1,-2,-4
18:57:50.390783,5,5,0,3,3,0,2,6
18:57:50.391782,-2,-2,5,0,-10,-3,-4,-1
18:57:50.413766,-2,0,-10,1,6,6,1,0
18:57:50.414764,-2,-3,2,8,0,-5,-4,-3
18:57:50.435755,2,3,1,-7,-1,2,4,0
18:57:50.436754,7,6,7,15,34,6,1,4
18:57:50.450745,-6,-6,1,32,16,7,-6,-1
18:57:50.451745,4,2,-10,-29,43,1,1,-2
18:57:50.473728,-6,-7,3,17,-59,-37,-5,-5
18:57:50.473728,5,6,2,69,-128,-53,6,0
18:57:50.495718,-11,-2,11,38,127,102,-1,-7
18:57:50.496715,13,39,41,-108,-128,-73,4,2
18:57:50.510705,7,23,54,127,-128,-78,0,1
18:57:50.511708,-3,20,-2,127,127,127,18,1
18:57:50.533692,2,-28,4,15,127,27,-15,11
18:57:50.533692,-25,-20,-19,-128,-128,-128,-34,-14
18:57:50.555679,-36,-38,-31,102,127,127,-14,-22
18:57:50.556679,21,67,59,-128,-128,-128,10,-2
18:57:50.570671,-57,-61,17,7,-121,88,-35,-44
18:57:50.571668,46,-6,-128,49,-128,-94,21,36
18:57:50.593654,-23,-87,-81,-128,-128,-21,-22,-15
18:57:50.594653,21,118,109,40,127,54,-1,15
18:57:50.615642,34,-19,-73,-128,-128,-58,33,32
18:57:50.616640,11,47,4,-97,42,66,16,-7
18:57:50.630634,-2,-64,40,56,-45,-46,-3,4
18:57:50.631630,-15,-3,18,127,127,127,-4,-10
18:57:50.653619,6,-14,-78,-128,-128,-128,-9,8
18:57:50.653619,11,17,-13,107,127,127,11,0
18:57:50.675605,14,22,45,127,127,47,17,9
18:57:50.676603,41,127,77,-120,-128,109,23,20
18:57:50.690593,-26,-107,-38,72,-104,-42,0,7
18:57:50.691596,-53,-128,-109,127,127,127,61,-13
18:57:50.713582,-6,-90,-128,-128,-128,-109,-29,4
18:57:50.714579,52,127,127,2,-96,-8,-6,2
18:57:50.736566,-52,-52,-21,52,127,127,3,-5
18:57:50.736566,21,17,24,-128,-128,-128,-49,10
18:57:50.750556,-32,-128,-128,-128,112,127,52,10
18:57:50.751556,28,56,28,127,127,-65,10,10
18:57:50.773542,32,25,13,-128,127,-128,18,8
18:57:50.773542,-5,33,-3,-128,-128,-128,-21,-6
18:57:50.795529,-59,-128,-128,32,127,127,-8,-28
18:57:50.803527,-37,-63,-15,86,127,127,14,-25
18:57:50.810520,52,127,87,-39,-128,-114,-5,17
18:57:50.811520,-5,-48,-57,127,-64,75,15,10
18:57:50.833508,21,67,54,-9,-104,127,9,10
18:57:50.833508,-15,-20,-38,99,-122,101,-32,-25
18:57:50.855492,-9,26,58,-128,-128,-128,2,-3
18:57:50.856491,-18,6,-17,-128,-128,-54,-23,-11
18:57:50.870483,-10,12,26,28,27,79,3,-10
18:57:50.871484,-25,-128,-128,22,-128,92,-17,-6
18:57:50.893468,10,41,31,-128,-128,-128,-10,4
18:57:50.894467,-52,-128,-88,127,127,97,9,-19
18:57:50.923452,26,67,61,32,-70,-76,5,13
18:57:50.923452,28,99,101,70,-61,74,14,11
18:57:50.931445,-81,-128,-128,-128,127,127,-11,-35
18:57:50.931445,-10,-25,-57,-128,-128,-111,-11,-7
18:57:50.953434,9,6,41,-50,127,-128,-12,0
18:57:50.954431,2,88,127,-105,55,127,21,-10
18:57:50.976417,-17,-23,6,105,127,102,-4,-14
18:57:50.976417,-1,-16,-36,-128,-47,56,-13,-8
18:57:50.991410,51,127,127,110,-128,-120,6,21
18:57:50.991410,-44,-99,-59,-84,18,-128,-14,-4
18:57:51.013397,-30,-64,-54,114,127,127,24,-10
18:57:51.014394,-8,-28,-36,5,-128,-103,-11,-3
18:57:51.043378,-1,-37,12,127,127,127,22,8
18:57:51.044375,-23,-65,-76,-128,-83,-23,-13,-11
18:57:51.051372,-11,-4,18,127,127,16,9,-10
18:57:51.051372,7,20,71,112,127,56,9,0
18:57:51.073359,8,66,96,-67,55,-32,7,1
18:57:51.074355,-21,3,53,70,-7,16,-13,-22
18:57:51.096342,27,23,7,-110,44,34,7,14
18:57:51.096342,-16,0,20,26,-128,119,-12,-17
18:57:51.111334,-14,-19,-15,-85,-128,-40,-12,-7
18:57:51.112335,28,67,65,-30,-128,-128,-8,6
18:57:51.133322,-39,-49,-27,-66,-128,-110,-20,-25
18:57:51.134318,-26,-67,-83,28,127,127,21,-5
18:57:51.156304,-28,-75,-62,29,127,-128,-3,-12
18:57:51.156304,-14,-9,7,39,-128,-128,8,-3
18:57:51.171296,-22,-104,-89,84,127,127,22,-2
18:57:51.178292,26,42,37,60,127,127,12,14
18:57:51.201277,-5,3,-2,-128,-128,-128,-33,-9
18:57:51.201277,-10,-27,-9,-6,-128,-53,-4,-5
18:57:51.216267,12,42,36,-40,127,1,3,4
18:57:51.216267,-3,9,49,70,127,102,4,-1
18:57:51.231262,16,0,-40,-128,-128,-41,18,16
18:57:51.238256,-13,-2,47,127,127,127,24,-6
18:57:51.253248,3,-2,-17,-100,-128,-128,-15,4
18:57:51.254244,-11,-4,57,127,127,127,13,-8
18:57:51.276230,15,31,4,-80,-128,-128,-14,9
18:57:51.276230,-4,-8,-28,-128,-128,-6,-7,-1
18:57:51.291224,11,18,-10,-128,127,114,8,8
18:57:51.298217,-27,-44,-27,-26,91,59,-3,-14
18:57:51.314207,4,7,-7,-83,-25,-37,-3,4
18:57:51.314207,2,4,4,6,-23,-13,2,6
18:57:51.336193,2,-1,-5,6,47,37,1,-2
18:57:51.336193,-3,-1,-1,1,-37,-9,-2,5
18:57:51.358182,1,2,0,0,-23,-14,6,12
18:57:51.359182,11,2,4,5,3,-5,6,-2
18:57:51.373173,-18,-5,-3,-6,3,0,13,7
18:57:51.374170,-41,27,9,6,12,19,56,1
18:57:51.396159,-12,-17,11,21,24,35,-82,-1
18:57:51.396159,127,9,-4,-6,-8,11,-90,19
18:57:51.411147,-50,6,-4,-2,-9,-24,-76,7
18:57:51.418145,107,-11,1,-3,13,41,-12,-64
18:57:51.433137,66,-19,-8,-7,-11,-31,63,-14
18:57:51.434135,100,34,-15,-20,-27,-52,-128,-9
18:57:51.456119,-128,16,22,23,35,83,127,127
18:57:51.457118,56,127,12,-4,-1,-3,-128,64
18:57:51.471113,-128,31,-49,-44,-71,-79,-128,-128
18:57:51.478106,-4,-17,9,13,25,42,32,91
18:57:51.493098,8,-8,-25,-31,-36,-52,-128,60
18:57:51.494095,-102,-4,14,47,32,-7,127,-99
18:57:51.516084,-48,-22,-30,-106,-128,-36,7,11
18:57:51.517081,-42,-32,-31,-128,39,-30,-41,-20
18:57:51.531076,-93,-48,11,127,127,105,-66,-44
18:57:51.538071,25,55,17,23,-59,-128,-128,123
18:57:51.553062,-52,-80,-47,26,127,82,59,-67
18:57:51.554061,-15,69,-2,-128,-128,-31,-128,74
18:57:51.576047,-48,9,13,-43,105,-33,-128,39
18:57:51.577044,-42,-38,-23,125,127,127,3,44
18:57:51.591038,127,74,-35,-87,52,50,26,-12
18:57:51.598034,-128,-30,24,-26,-128,-128,127,-117
18:57:51.613024,48,-35,-31,127,127,95,96,75
18:57:51.614022,127,37,30,11,127,-15,81,99
18:57:51.636010,127,-27,-9,13,58,69,44,26
18:57:51.637010,72,46,3,14,-26,-10,56,38
18:57:51.657995,-52,-25,-8,16,25,-57,17,-96
18:57:51.658995,-12,-7,3,-6,-60,22,-128,15
18:57:51.673987,-7,-6,-1,-11,-3,-37,127,-95
18:57:51.680982,38,6,-6,-20,-35,2,86,42
18:57:51.695973,-5,-13,8,19,24,34,11,-36
18:57:51.696973,8,15,-4,29,-5,-30,-27,-19
18:57:51.717957,-7,-23,13,53,-58,-53,-83,-7
18:57:51.718956,-17,6,12,-30,-40,6,50,-30
18:57:51.733950,-10,-19,-22,-9,57,5,5,-18
18:57:51.740945,2,10,10,28,-1,4,-16,0
18:57:51.755936,-14,-16,-2,53,31,-22,-21,-29
18:57:51.756936,97,42,-3,86,-45,17,24,68
18:57:51.777919,-33,-15,-2,3,127,23,40,-48
18:57:51.778919,-11,-9,-7,-10,111,-15,-33,7
18:57:51.793909,-4,-9,-5,-30,20,6,0,-10
18:57:51.800908,18,4,1,34,-2,-11,-11,94
18:57:51.815899,-8,-7,-12,-58,-76,-22,13,-28
18:57:51.816896,-1,10,-7,-50,-5,0,-42,-14
18:57:51.837883,82,31,12,-4,-128,31,-108,78
18:57:51.838884,32,13,21,73,104,20,44,63
18:57:51.853875,-6,2,-1,-17,13,16,11,-9
18:57:51.860871,-7,-8,-7,-39,15,21,6,-12
18:57:51.883856,-12,-4,0,13,33,12,4,-8
18:57:51.883856,2,-4,-5,-62,-99,-4,2,-2
18:57:51.898849,-9,-15,-1,5,29,18,48,9
18:57:51.898849,-42,-7,-2,5,24,0,-18,-28
18:57:51.913835,-8,-4,-1,-16,-83,-10,0,-6
18:57:51.920834,-7,-7,5,14,17,-2,-25,5
18:57:51.935824,0,0,-3,-10,29,28,-12,-3
18:57:51.943816,0,3,6,-23,-125,1,37,-16
18:57:51.957807,13,4,2,18,88,25,26,58
18:57:51.958807,0,8,2,1,-26,-6,14,0
18:57:51.973800,-8,-8,-9,-12,-20,-15,-14,-11
18:57:51.980796,-6,0,2,-12,-10,-8,2,-2
18:57:51.995787,-6,-8,-11,-6,-3,3,-11,-6
18:57:51.996784,-9,-3,2,14,39,0,10,3
18:57:52.018773,-11,-3,0,-10,-27,-4,-2,-5
18:57:52.018773,-14,-9,-2,6,35,-15,-1,-23
18:57:52.033764,0,-5,-1,-9,-6,5,-1,9
18:57:52.040759,18,4,2,-6,-37,0,18,15
18:57:52.055750,-23,-14,0,10,13,7,6,-10
18:57:52.056749,5,2,0,33,45,-5,-4,-4
18:57:52.078733,0,1,2,9,52,6,-11,16
18:57:52.078733,-2,0,-2,2,94,3,-6,-4
18:57:52.100722,11,10,1,-24,19,-4,-1,-4
18:57:52.101721,-6,-11,-5,1,5,-4,3,8
18:57:52.115713,-4,-7,-7,-14,-11,-6,-82,-2
18:57:52.116712,0,-2,1,1,1,-7,9,-3
18:57:52.145691,-1,1,2,-1,4,6,4,32
18:57:52.146691,-6,-3,-4,1,-38,-4,0,-11
18:57:52.153686,-17,-9,-2,8,21,2,-57,-33
18:57:52.161686,-6,-3,-3,-42,-30,-14,-3,-9
18:57:52.175674,5,0,1,-10,74,-1,12,18
18:57:52.176673,-4,-4,0,7,61,-1,2,4
18:57:52.205657,1,-3,-6,-17,-72,-9,17,-10
18:57:52.206654,2,0,-3,-25,-35,-6,-15,-18
18:57:52.213652,9,4,3,73,-9,-8,7,-13
18:57:52.221647,26,3,-4,9,31,28,12,31
18:57:52.236636,-11,1,-2,5,-80,-6,-38,-14
18:57:52.236636,-7,-4,-1,15,51,1,-2,-7
18:57:52.258624,5,8,6,1,21,6,-1,-1
18:57:52.258624,4,0,-1,-4,-11,0,-10,-12
18:57:52.273615,1,2,0,35,-10,2,-9,-2
18:57:52.280608,3,0,-3,-6,-4,-1,-40,-11
18:57:52.296598,-7,1,-1,-1,-8,0,11,-7
18:57:52.296598,-11,-6,-2,26,88,-2,-22,20
18:57:52.318584,-1,0,7,6,50,8,27,-6
18:57:52.318584,3,-4,-2,-71,-70,0,2,13
18:57:52.333578,-9,-7,-6,16,13,3,0,-15
18:57:52.340570,11,4,3,-2,-63,4,17,14
18:57:52.355561,1,3,-3,-5,-2,-5,11,-2
18:57:52.356563,-14,-5,0,-9,6,-12,-13,-16
18:57:52.378550,-8,-2,-5,-5,-3,1,69,-5
18:57:52.379550,8,1,2,5,-1,-8,22,0
18:57:52.393540,1,0,0,2,-52,-10,-62,7
18:57:52.400536,-2,-1,-5,-21,-10,-6,4,9
18:57:52.416526,0,2,3,3,-22,-8,3,-2
18:57:52.416526,-5,-4,-4,-3,-10,-9,0,2
18:57:52.438513,2,3,0,-5,-5,-4,-7,3
18:57:52.439512,-5,0,0,-4,-5,-6,-1,8
18:57:52.453503,0,1,-1,-1,-5,-2,5,-1
18:57:52.461496,7,3,2,-7,-1,2,0,11
18:57:52.476488,-2,3,2,-16,-72,-4,0,-1
18:57:52.476488,-4,-5,1,74,57,6,4,8
18:57:52.498472,0,-3,2,5,3,-3,-3,0
18:57:52.513466,-2,-2,-1,-3,8,2,2,0
18:57:52.514466,-4,-5,-1,-18,-64,6,-32,1
18:57:52.521458,-4,-4,0,-3,-4,-1,7,-1
18:57:52.536449,0,2,2,2,4,-4,10,-9
18:57:52.536449,3,-1,-3,2,2,-2,38,12
18:57:52.558438,1,0,1,-17,7,1,-1,19
18:57:52.559436,-2,-2,-4,-13,22,-1,-4,-4
18:57:52.581421,-1,3,-2,-3,-9,-6,-1,-5
18:57:52.581421,0,-1,1,-20,-37,-7,-3,-4
18:57:52.595415,2,2,2,4,4,-3,15,5
18:57:52.596411,-8,-6,-4,0,6,10,-13,4
18:57:52.618399,-7,-4,-5,-2,-8,0,6,-2
18:57:52.618399,-11,-2,0,7,0,0,-1,-10
18:57:52.641386,0,-4,-4,-1,-2,-5,5,2
18:57:52.641386,7,4,0,-8,9,2,1,1
18:57:52.655377,-1,0,-5,-6,-4,-4,-7,-4
18:57:52.656376,-1,-2,0,-2,-16,0,1,0
18:57:52.678364,6,3,1,-1,-10,-8,-5,-1
18:57:52.679363,-15,-7,1,3,-11,-1,-2,0
18:57:52.701348,-1,0,-3,-7,-8,-8,-31,-5
18:57:52.701348,-5,-1,-4,-1,-7,-1,2,-2
18:57:52.716340,2,3,2,10,2,2,-21,-3
18:57:52.716340,2,0,-4,-1,-4,0,-1,-3
18:57:52.738327,-2,1,-2,-1,-2,-6,-51,-2
18:57:52.739325,-1,-2,-4,-1,-27,-1,-1,-3
18:57:52.761311,-4,0,0,8,29,0,-3,-5
18:57:52.761311,-1,-3,0,-14,-18,-3,7,5
18:57:52.776300,-1,0,1,3,8,2,-14,-5
18:57:52.776300,-1,0,-3,-4,10,4,13,12
18:57:52.798289,-9,-3,0,2,11,-5,-5,-6
18:57:52.799286,-7,-2,-5,-4,-3,-3,-10,-14
18:57:52.821272,-3,1,-4,-2,-3,-4,10,-1
18:57:52.821272,-6,-4,-1,-13,-3,-7,-6,-11
18:57:52.836265,-3,1,0,0,-3,0,1,0
18:57:52.836265,-2,-4,-1,4,5,-3,-7,-9
18:57:52.858252,2,0,-1,-9,-6,-2,-8,-2
18:57:52.859249,-4,2,-4,5,23,6,-14,-1
18:57:52.881235,-3,-2,-2,-3,-1,0,-4,-13
18:57:52.881235,1,0,-1,-1,1,-1,11,20
18:57:52.896228,-8,-3,-1,1,0,-6,-5,-16
18:57:52.903223,-2,-5,-2,-3,-3,-5,4,10
18:57:52.918215,-4,0,0,1,-3,-18,-6,-5
18:57:52.919212,5,2,-1,-31,1,6,4,-1
18:57:52.941198,-5,-1,-1,-3,3,-3,-15,3
18:57:52.941198,-2,-1,-3,-9,-7,1,2,-2
18:57:52.956192,0,-2,0,-8,-17,-5,-13,0
18:57:52.963184,19,8,0,4,14,1,-17,-1
18:57:52.978178,-5,-2,-2,-2,-5,-1,8,10
18:57:52.979177,-2,-4,-4,-2,-2,-2,-2,-6
18:57:53.001160,-4,-2,-2,0,-2,-3,1,-4
18:57:53.001160,-1,2,0,31,-1,4,8,-10
18:57:53.016155,-1,-4,0,-4,7,-5,-22,-4
18:57:53.023147,0,-1,-3,-15,-8,2,-3,9
18:57:53.038141,3,2,1,5,-2,-4,17,11
18:57:53.039137,-1,-2,-2,-3,4,-1,19,-2
18:57:53.061123,18,8,1,10,31,6,-6,5
18:57:53.061123,15,11,7,-3,-22,10,30,46
18:57:53.076117,-7,-6,0,5,13,1,-4,-9
18:57:53.083111,0,1,-1,-1,-4,-2,-5,-3
18:57:53.098103,9,6,3,0,-2,2,15,29
18:57:53.099100,-2,1,-3,-37,6,-1,-5,-3
18:57:53.121086,-2,-2,1,9,19,1,-2,-8
18:57:53.121086,5,-2,-4,-10,-4,10,-14,1
18:57:53.136080,-6,-4,-6,-8,-12,-14,-1,-7
18:57:53.143073,10,4,3,2,-1,7,-2,2
18:57:53.158063,-7,-2,-3,1,0,1,8,-3
18:57:53.159063,-1,-3,-3,-1,4,1,5,7
18:57:53.181051,-1,-1,0,-2,-4,-2,-2,-4
18:57:53.182048,1,-3,-3,1,5,-1,-3,8
18:57:53.196045,-3,1,5,1,16,1,-8,-2
18:57:53.203038,12,3,0,12,4,-4,-1,23
18:57:53.219028,-5,-5,-2,-40,-13,-8,0,-6
18:57:53.219028,-1,0,0,-2,0,-2,-17,-1
18:57:53.248009,5,2,-2,-3,0,0,9,1
18:57:53.249007,-3,-2,-4,-3,-4,-2,2,9
18:57:53.256006,-2,-3,-4,-1,-10,-3,-1,1
18:57:53.264001,-2,-3,-3,-2,0,-1,22,4
18:57:53.278991,2,1,1,-2,0,8,2,10
18:57:53.278991,2,1,-2,1,-4,-7,-14,0
18:57:53.300978,-6,1,0,-2,-1,1,0,-6
18:57:53.301974,-5,0,2,-17,-12,-17,-8,-10
18:57:53.315968,0,0,2,4,4,2,-1,-2
18:57:53.322964,-11,-3,-4,-5,-2,-2,-24,-10
18:57:53.345949,-2,0,0,-1,-2,-4,2,3
18:57:53.346949,-3,-3,-3,1,-3,-3,-4,-6
18:57:53.360937,-5,-3,-3,-3,2,4,2,-5
18:57:53.361939,-4,-1,1,1,-1,0,-4,-4
18:57:53.375931,-6,-2,-7,-5,-9,-8,-16,-9
18:57:53.383925,4,4,4,10,6,5,-3,1
18:57:53.397915,-8,1,0,1,-1,-2,-1,1
18:57:53.398914,-7,-2,-3,-6,-10,-4,-14,-2
18:57:53.420904,5,2,-1,-13,-3,1,7,19
18:57:53.421901,1,0,3,4,1,-2,-3,-1
18:57:53.435894,-7,2,-3,-4,-4,0,10,-10
18:57:53.443886,-3,-1,-3,-4,-3,-4,18,3
18:57:53.458877,12,6,0,1,0,2,0,-2
18:57:53.458877,-6,-3,3,1,3,-3,2,0
18:57:53.480866,-2,-4,-2,-1,-3,-9,-7,-3
18:57:53.481865,-1,-2,-1,-1,-4,-4,-4,8
18:57:53.495857,-4,-4,-2,-4,-3,1,-10,-8
18:57:53.503852,-1,0,0,-1,-3,-4,18,10
18:57:53.518842,0,-1,-1,2,1,0,-1,-5
18:57:53.518842,6,4,1,-1,-1,-5,-2,5
18:57:53.540829,6,4,2,-12,1,2,23,7
18:57:53.541827,-7,-3,3,7,12,2,-5,-7
18:57:53.563812,9,8,1,-3,-4,1,3,-3
18:57:53.563812,1,-1,-1,-3,-4,-3,0,-2
18:57:53.578803,1,-1,-1,0,-2,0,-3,-10
18:57:53.578803,-1,-1,0,1,1,5,4,-2
18:57:53.600792,-3,-1,0,-2,-1,-5,16,1
18:57:53.601788,3,2,-2,0,0,5,-6,2
18:57:53.623776,-2,-1,3,22,3,-1,17,-4
18:57:53.623776,3,-2,0,-4,-4,3,-2,-2
18:57:53.638765,3,0,0,-2,-2,1,-11,8
18:57:53.638765,0,0,-1,-6,0,1,4,6
18:57:53.660754,-3,0,2,13,9,4,1,1
18:57:53.661754,1,1,-1,-2,-3,0,-4,-1
18:57:53.683737,4,4,-5,-2,-4,-6,-2,1
18:57:53.683737,4,-3,-3,0,-1,1,6,20
18:57:53.698729,-6,0,-1,3,3,-1,0,-3
18:57:53.698729,5,2,5,5,5,9,-9,4
18:57:53.720717,2,0,0,-1,0,-3,6,8
18:57:53.721714,-2,-2,-1,3,4,-1,-3,-4
18:57:53.743700,-6,-1,-2,-1,-5,2,13,-8
18:57:53.744703,2,2,-3,2,3,0,1,0
18:57:53.765689,4,1,1,-2,-2,-2,-3,0
18:57:53.766689,4,2,-1,0,-2,1,-15,1
18:57:53.780680,5,2,1,3,1,1,2,2
18:57:53.781679,1,0,0,-4,0,0,2,-2
18:57:53.803663,0,1,0,-3,-2,-7,-21,-9
18:57:53.804667,0,0,0,-1,1,3,13,4
18:57:53.818657,-2,0,-3,0,1,1,2,-4
18:57:53.825649,0,3,0,1,0,-2,-4,-4
18:57:53.840643,-8,-4,-6,-1,-4,0,-3,-5
18:57:53.841642,6,4,0,-3,-4,-1,-3,-4
18:57:53.863625,-2,-6,-2,1,-2,0,-6,0
18:57:53.864628,2,0,0,-3,0,1,0,2
18:57:53.878619,-3,-3,0,-2,-3,-3,-9,11
18:57:53.885613,-8,-5,-1,0,0,-3,24,-14
18:57:53.900602,1,3,0,0,0,-3,1,1
18:57:53.901605,-3,-1,0,-1,0,-3,-2,-8
18:57:53.923591,4,0,-2,0,1,2,13,7
18:57:53.923591,8,0,0,1,4,7,-2,9
18:57:53.938582,3,-3,-3,0,-2,-2,-3,-4
18:57:53.945575,-5,-2,-3,-2,-1,-1,-3,-5
18:57:53.960565,2,3,0,3,3,2,-10,5
18:57:53.961566,-2,-1,1,0,0,-4,0,0
18:57:53.983554,-8,-4,-1,-1,-1,-1,11,-10
18:57:53.983554,8,4,-2,-3,-5,2,5,9
18:57:53.998545,-5,-3,-1,-1,4,1,4,0
18:57:54.005538,-8,-4,-1,-1,-3,0,-2,-3
18:57:54.020528,-1,-1,1,-2,-1,1,1,3
18:57:54.021531,0,0,-1,3,1,2,0,1
18:57:54.043515,-4,-6,-1,-2,-4,-2,12,-8
18:57:54.044514,-1,2,0,0,0,-5,6,9
18:57:54.058508,-2,-3,-4,-3,-3,-4,-30,2
18:57:54.065503,4,3,3,-2,-4,0,1,0
18:57:54.081490,9,5,3,-3,-3,-6,-2,1
18:57:54.081490,-5,-3,-3,0,-6,-1,4,-3
18:57:54.103477,1,-1,1,1,-2,3,0,4
18:57:54.104478,-4,2,3,-4,1,-1,-3,-3
18:57:54.118471,-2,0,2,0,-2,-2,-4,-5
18:57:54.126463,-2,-2,2,0,-1,-1,-5,-3
18:57:54.141456,-7,-1,-3,-2,-2,-4,-5,8
18:57:54.141456,-3,-7,-3,-1,-3,-5,31,-8
18:57:54.163443,2,-1,-2,-1,-4,-2,10,-1
18:57:54.164440,-4,-4,-3,0,-1,0,-5,-8
18:57:54.178434,1,-1,-2,-7,-5,-7,-2,-4
18:57:54.186429,3,2,-2,0,-5,0,-1,-1
18:57:54.200417,-4,-1,1,-1,-2,0,1,-3
18:57:54.201416,2,-2,-2,-3,-5,-1,-7,-5
18:57:54.223403,-5,-3,0,-1,1,-3,2,-2
18:57:54.224405,1,-3,-3,1,-2,3,-10,-5
18:57:54.238397,-4,-3,-2,-3,-3,-5,-7,-10
18:57:54.246391,-8,-1,-1,-1,-3,-4,3,2
18:57:54.261382,2,3,-4,-2,-2,1,-1,-2
18:57:54.261382,-2,-3,1,-2,1,-1,1,-4
18:57:54.283368,4,0,-2,3,4,2,3,11
18:57:54.284367,2,0,-2,2,-2,-2,0,-2
18:57:54.298359,-4,-3,-4,2,-4,-4,-4,-6
18:57:54.305355,2,-3,1,0,0,0,1,12
18:57:54.321345,4,2,4,2,6,1,-6,-5
18:57:54.321345,-4,-2,-1,-2,-2,-3,-6,-7
18:57:54.351324,20,4,0,0,-3,-2,3,11
18:57:54.351324,-1,-3,-3,0,-1,-2,0,-2
18:57:54.358322,7,4,0,-1,0,6,12,11
18:57:54.366317,-2,1,-4,0,-4,-3,1,6
18:57:54.381307,-5,-2,1,-1,2,-2,2,-5
18:57:54.381307,-3,0,-1,-2,2,0,-4,-3
18:57:54.403294,-3,2,1,-2,-5,0,7,2
18:57:54.404293,-1,2,-2,-2,0,1,-5,-7
18:57:54.418285,-2,-3,-2,-2,-2,-1,1,-3
18:57:54.426279,-4,-1,-1,-2,-4,-3,1,-1
18:57:54.441268,-3,3,-1,-1,3,1,-11,9
18:57:54.441268,-4,0,1,2,0,0,2,-4
18:57:54.463257,-3,-5,1,-4,-1,1,0,-4
18:57:54.464254,-2,-1,-2,-1,1,4,3,0
18:57:54.486241,-5,-2,-1,-2,1,-4,-2,-8
18:57:54.486241,2,-2,-2,-2,-3,-5,1,7
18:57:54.501234,-4,-1,-1,-1,1,0,-15,-1
18:57:54.508229,4,-2,-2,-1,-2,2,3,0
18:57:54.523220,-4,0,2,-3,1,4,9,-9
18:57:54.524216,13,4,1,-1,0,3,10,6
18:57:54.546203,-2,-4,-5,-2,-3,-1,-1,-3
18:57:54.546203,0,-2,0,-4,1,-3,-5,-3
18:57:54.561193,0,1,1,-2,-2,-6,-2,3
18:57:54.561193,-1,-1,-5,1,-3,1,-13,2
18:57:54.583182,2,1,3,2,1,-3,6,7
18:57:54.584179,3,2,2,-2,-1,0,21,7
18:57:54.606165,-5,-2,1,-3,-2,0,-2,-7
18:57:54.606165,0,-3,-5,-3,-2,-4,-14,1
18:57:54.621156,-1,0,0,-3,-2,1,1,-5
18:57:54.622159,-7,-3,-3,-1,-1,-5,-24,-5
18:57:54.643144,0,-2,-3,0,0,-1,0,-1
18:57:54.644142,-7,-2,-2,2,3,-2,-13,-11
18:57:54.666128,3,1,4,-1,-2,0,2,1
18:57:54.666128,0,-1,-1,1,-3,-1,0,-5
18:57:54.681122,3,-4,-1,1,0,3,0,0
18:57:54.682121,-8,-3,-2,0,-3,-1,1,-4
18:57:54.703105,-3,0,-2,1,0,1,-3,-2
18:57:54.704105,-5,-3,1,0,-4,0,-1,-4
18:57:54.726090,-2,0,0,-2,-3,0,2,2
18:57:54.726090,-2,-4,-1,-2,-3,-7,-8,-4
18:57:54.741081,-2,2,2,-4,-3,-5,-6,-4
18:57:54.741081,-2,0,-2,2,-1,-3,-1,-2
18:57:54.764070,-8,-3,0,0,-1,-1,4,0
18:57:54.764070,-4,-1,0,0,-2,-3,11,-9
18:57:54.786056,-2,-1,1,-2,0,-1,-6,-1
18:57:54.786056,0,-1,0,-3,-4,1,6,4
18:57:54.801047,-7,-2,-1,-2,-1,0,-3,-11
18:57:54.801047,12,6,5,0,0,-1,5,16
18:57:54.823031,-3,0,0,0,1,0,-4,-7
18:57:54.824031,-1,0,-3,0,-5,-2,-3,-5
18:57:54.846021,-1,-1,0,-1,-2,-3,1,3
18:57:54.847020,10,-1,-1,-1,1,5,8,8
18:57:54.861010,0,-4,-1,-3,0,4,-9,3
18:57:54.862006,10,-1,-3,-1,-6,1,16,16
18:57:54.883993,-4,1,1,-1,1,-2,-3,0
18:57:54.883993,-3,-1,1,1,-3,1,2,-1
18:57:54.905982,4,2,0,-1,-1,-2,-2,4
18:57:54.905982,-1,-2,1,-1,-3,-2,-12,-5
18:57:54.920973,0,0,-2,-1,0,-4,16,0
18:57:54.921973,-2,2,3,2,-1,1,2,-1
18:57:54.943956,2,0,0,1,-1,-1,14,3
18:57:54.943956,18,4,0,1,1,2,6,10
18:57:54.965945,-3,-1,0,-2,0,5,9,2
18:57:54.966942,0,1,1,0,-1,3,0,-1
18:57:54.980936,2,1,-1,0,-1,4,4,4
18:57:54.981934,-2,-1,1,-3,-2,-2,-14,1
18:57:55.002919,-7,-5,-2,0,0,-1,0,-4
18:57:55.003919,-5,1,-1,-3,-4,-3,21,-3
18:57:55.025905,0,3,-1,-1,-2,2,3,4
18:57:55.026908,0,-6,0,-1,-5,-3,7,22
18:57:55.048891,3,-1,3,0,-1,-5,3,2
18:57:55.048891,-5,-5,0,-3,-2,-4,-6,-11
18:57:55.063882,2,0,0,-2,1,3,10,6
18:57:55.063882,-1,-1,-3,-2,-1,1,0,1
18:57:55.085871,2,-2,4,-1,0,3,-9,-1
18:57:55.086869,-1,-3,-1,-3,-2,-1,-15,2
18:57:55.100862,-7,-4,1,1,-6,-3,1,2
18:57:55.101860,-3,-3,1,-2,-1,2,8,8
18:57:55.122847,-3,-4,0,-2,-2,-4,-3,-3
18:57:55.123844,-1,-2,-3,-1,-1,0,13,-1
18:57:55.145833,11,2,-1,3,-2,-2,-6,4
18:57:55.146833,-10,-3,1,-1,-2,-3,0,-2
18:57:55.160821,0,2,-1,1,2,1,17,5
18:57:55.168820,-2,1,0,-1,-4,-2,8,-10
18:57:55.183807,8,0,-3,-2,1,4,16,26
18:57:55.183807,-1,-2,-1,-1,-1,-1,8,-1
18:57:55.205796,5,1,1,1,4,3,-9,16
18:57:55.206794,-3,-2,-1,-4,-3,-4,0,-2
18:57:55.228779,-7,-4,-3,-3,1,-1,-10,-3
18:57:55.228779,-8,-2,-1,-2,-3,-7,-6,-11
18:57:55.243770,0,4,-3,-1,1,-6,-22,-5
18:57:55.243770,-7,-3,-1,-2,-1,-1,-9,5
18:57:55.265759,-5,-4,-5,-2,-6,-5,2,-5
18:57:55.266758,-3,-1,1,0,0,-3,0,-2
18:57:55.288742,11,1,-1,0,7,5,7,9
18:57:55.288742,1,-3,-2,1,-2,0,1,-1
18:57:55.303732,-3,-1,-1,-1,-2,0,-14,2
18:57:55.303732,2,1,0,0,-2,-3,1,0
18:57:55.326719,0,-1,-1,-1,-3,0,-1,-8
18:57:55.326719,5,0,-1,-1,-2,-2,-8,-1
18:57:55.348704,-8,-3,-3,-1,-4,-1,1,-8
18:57:55.348704,-4,-1,1,-3,-6,-3,-3,-7
18:57:55.363698,2,-4,2,1,0,-1,1,7
18:57:55.364696,4,4,-5,-4,0,-1,1,-8
18:57:55.385685,6,1,0,0,1,1,1,4
18:57:55.386684,3,1,0,0,1,2,-15,23
18:57:55.408671,3,0,-1,-2,0,4,9,3
18:57:55.409670,-3,-2,-1,-2,0,-2,-16,-1
18:57:55.423661,-3,-2,-1,-1,-4,-4,-3,-4
18:57:55.423661,-2,-1,-3,-2,-6,-3,-4,1
18:57:55.453640,2,-2,0,-1,1,0,3,1
18:57:55.454642,-2,0,-1,0,-1,-1,-4,-4
18:57:55.468630,-8,-1,-2,0,0,0,-3,-3
18:57:55.468630,-4,-5,-4,0,0,0,0,-3
18:57:55.483622,-13,-8,-1,-3,-1,-2,-14,1
18:57:55.484622,-3,-5,-2,-3,2,3,19,-5
18:57:55.505609,-2,-1,-1,1,2,-3,1,-6
18:57:55.506609,-4,-1,-4,0,2,-3,-2,-2
18:57:55.528596,-5,2,-3,-2,0,-3,1,1
18:57:55.529595,2,3,0,2,4,0,-20,2
18:57:55.543584,-5,-3,-3,-2,-2,-4,-1,-5
18:57:55.544587,-1,-2,-1,1,-4,0,2,0
18:57:55.566572,-3,0,-4,-2,1,2,-33,-16
18:57:55.566572,-6,-6,-5,-2,-2,-3,-3,-7
18:57:55.588559,12,5,0,0,0,-1,-1,-6
18:57:55.588559,0,0,0,1,3,0,-15,-1
18:57:55.603550,-3,0,-3,0,0,0,1,0
18:57:55.604546,1,-4,-1,-2,2,2,-1,1
18:57:55.626532,-3,-2,-3,-5,-5,-5,-6,-5
18:57:55.626532,-3,-1,-2,-3,-3,-2,2,10
18:57:55.648521,1,-1,-1,-1,-3,-6,-23,-5
18:57:55.648521,-1,-2,-3,-2,-1,-2,-17,-6
18:57:55.663513,5,0,1,3,1,1,11,1
18:57:55.664511,-1,-1,-1,3,3,-1,5,5
18:57:55.686495,5,2,-3,-1,-5,-2,3,-10
18:57:55.686495,-4,-2,-3,0,-3,0,1,-4
18:57:55.708485,-1,0,0,-2,-2,0,-2,1
18:57:55.709481,-1,1,-3,1,-2,-2,-2,0
18:57:55.723475,-1,-1,-3,-2,-1,1,6,6
18:57:55.724475,-6,-3,-2,-2,-5,-3,-1,-7
18:57:55.746458,-4,0,-3,-5,-6,-2,10,-2
18:57:55.746458,-2,-4,1,0,0,1,-14,-6
18:57:55.768448,-1,-3,-2,-1,-4,2,0,-1
18:57:55.769444,0,0,1,-3,0,-2,-17,-7
18:57:55.783438,-7,-2,-1,-1,-3,0,3,-4
18:57:55.784435,0,1,0,-1,0,-3,18,-1
18:57:55.805422,-1,0,0,-1,-3,-1,-1,-6
18:57:55.806421,0,-1,0,-1,1,-3,-4,-3
18:57:55.828410,-3,-5,1,-3,-1,0,-6,5
18:57:55.829410,-5,-6,0,-4,1,1,0,3
18:57:55.851395,-2,-2,-2,-1,-3,-5,-11,-3
18:57:55.851395,3,1,1,1,1,0,7,11
18:57:55.866387,-1,-1,-3,-1,-4,-1,4,2
18:57:55.866387,0,-2,1,2,0,-1,-3,0
18:57:55.888373,-4,2,-2,1,0,0,5,7
18:57:55.889369,17,4,2,0,1,4,7,13
18:57:55.903364,-4,0,-1,0,-3,1,-1,-4
18:57:55.904363,-6,-3,-4,-3,1,-3,-12,0
18:57:55.926347,7,-4,1,2,-1,1,2,5
18:57:55.926347,-3,-3,-1,-1,1,0,0,-6
18:57:55.956328,-5,-2,1,-3,-2,-2,2,5
18:57:55.956328,1,-1,1,5,5,7,-9,-1
18:57:55.963327,-3,-2,-4,-3,0,-3,0,-6
18:57:55.964326,5,1,-1,1,-2,-5,19,3
18:57:55.986313,-3,2,2,-3,2,3,-12,-19
18:57:55.993307,-5,-1,-1,2,-3,-5,-6,-10
18:57:56.008299,3,1,0,0,2,2,10,0
18:57:56.009296,1,-2,1,3,1,-2,-1,-6
18:57:56.023289,-6,-2,-1,-3,-1,-6,-2,-3
18:57:56.024286,0,0,1,2,1,3,5,13
18:57:56.046272,-5,-3,-5,-4,-2,-6,4,-6
18:57:56.046272,-1,-5,-2,-2,-4,1,-5,-3
18:57:56.068261,-4,2,-1,-4,0,0,15,1
18:57:56.069259,-2,-2,-1,1,1,-6,-7,4
18:57:56.083252,-3,3,0,-2,-2,0,0,-5
18:57:56.084251,-1,-5,-1,1,-1,1,3,0
18:57:56.106238,2,-2,-1,2,2,2,-11,4
18:57:56.106238,-4,-2,-2,0,-3,-2,-14,-3
18:57:56.128224,9,4,1,-2,0,10,10,20
18:57:56.129223,-3,0,4,-3,2,3,1,-2
18:57:56.143213,-2,0,-3,-1,0,-1,-2,-11
18:57:56.151207,-2,-1,0,0,-2,1,7,5
18:57:56.166197,-2,-1,4,3,1,3,10,10
18:57:56.166197,0,-1,0,-1,0,2,2,-2
18:57:56.188187,-6,1,-2,-1,1,-2,-8,-5
18:57:56.189184,-4,-1,0,-2,-4,-2,17,-1
18:57:56.211170,-3,-2,-2,1,-3,2,11,-3
18:57:56.211170,-1,1,1,2,1,-2,0,-4
18:57:56.226161,10,7,1,1,0,2,0,2
18:57:56.226161,2,-4,-3,-2,-1,1,0,-2
18:57:56.248150,-3,1,-1,0,1,-1,-4,1
18:57:56.249146,-8,-6,1,-2,1,2,1,-2
18:57:56.271136,1,0,-2,1,-1,-3,-1,3
18:57:56.271136,-3,-1,0,-2,0,-4,1,-3
18:57:56.286124,3,1,-1,-1,-2,1,4,3
18:57:56.286124,-6,1,-2,-1,-2,-3,-2,-8
18:57:56.308111,-1,-2,0,-2,0,-2,-13,-2
18:57:56.309109,-1,4,-1,-1,-2,-1,2,9
18:57:56.331095,-6,-4,-2,1,-3,0,2,-4
18:57:56.331095,7,4,2,0,-3,-5,-1,1
18:57:56.346086,-8,-8,-6,-1,-3,-1,-1,-7
18:57:56.347088,-4,-1,-1,0,-1,0,3,-11
18:57:56.368074,10,4,-1,-1,0,0,14,26
18:57:56.369074,-4,-5,-1,-1,-3,-1,-2,-4
18:57:56.391060,-3,-2,-4,-1,0,0,5,-5
18:57:56.391060,2,-2,-1,0,-1,-2,-4,-2
18:57:56.406053,0,1,-1,-3,-4,0,20,11
18:57:56.406053,0,-2,-3,1,-1,-3,17,10
18:57:56.428036,-3,1,2,-2,-1,-3,-3,-6
18:57:56.436033,-4,-2,-2,0,0,-5,3,-8
18:57:56.451024,13,2,-2,1,-4,2,9,18
18:57:56.452020,-9,-9,-2,-3,-3,-5,-6,-9
18:57:56.466014,-3,-4,-3,-3,-3,-1,-8,-7
18:57:56.466014,11,2,-4,-2,0,1,-6,10
18:57:56.487998,-4,-2,-3,-2,0,2,-1,-3
18:57:56.489000,-6,-1,-2,-3,-2,-3,-2,-4
18:57:56.510984,-3,-3,-4,-3,0,-2,-21,-3
18:57:56.511986,-2,0,2,1,0,-2,1,-11
18:57:56.525978,-1,2,0,-5,-1,-2,0,2
18:57:56.526975,-1,-1,-3,0,-1,0,-2,-6
18:57:56.555959,8,3,0,0,-2,-5,1,-1
18:57:56.556958,3,-1,-2,-3,-2,-3,-3,-5
18:57:56.570950,-2,-3,-5,-6,-1,2,5,2
18:57:56.571946,-2,-1,-2,0,-1,-6,5,-6
18:57:56.585940,3,-1,1,1,2,7,8,1
18:57:56.593934,2,1,0,-2,-2,-3,8,3
18:57:56.607924,-3,-1,-2,-2,-1,1,9,-2
18:57:56.608923,-1,-2,1,3,0,-2,1,0
18:57:56.630910,0,-1,0,-3,-3,-1,-2,1
18:57:56.631912,-7,-4,-1,-1,-1,1,6,4
18:57:56.645900,-2,-1,1,1,1,0,-3,-3
18:57:56.646900,0,-1,-4,-1,-2,0,0,0
18:57:56.668888,-2,1,1,-1,1,0,5,-5
18:57:56.668888,-3,-1,-3,-2,-5,-1,-2,-6
18:57:56.690875,-6,-2,-1,0,-1,-3,7,-12
18:57:56.691874,5,4,2,2,1,8,-16,8
18:57:56.705866,0,-2,-1,-1,-1,-3,3,-3
18:57:56.713861,0,2,0,0,2,8,2,-3
18:57:56.728849,6,4,1,-4,-4,0,4,12
18:57:56.728849,4,-3,2,1,-2,-2,2,0
18:57:56.750838,-5,-1,-1,0,-2,-3,2,-1
18:57:56.751837,0,-2,1,0,-1,0,-2,-4
18:57:56.765829,5,-2,0,1,-3,-2,-2,5
18:57:56.772827,-4,-1,-3,-4,0,0,-4,3
18:57:56.787815,-2,-3,-1,-1,0,0,-10,-3
18:57:56.788813,-6,-1,-5,-1,-3,-4,-6,-15
18:57:56.810798,6,2,-1,-3,-2,-1,-1,16
18:57:56.811798,0,-1,0,2,-1,3,1,6
18:57:56.825792,4,3,-4,-1,0,-3,-4,-7
18:57:56.833784,-1,-1,-2,0,-5,-1,1,0
18:57:56.848776,1,-1,0,-1,-2,-1,-2,0
18:57:56.848776,-4,-2,-1,-1,-4,3,-4,-3
18:57:56.871760,-2,-1,-2,-1,-2,-1,-1,0
18:57:56.871760,2,-1,-2,1,0,-1,0,0
18:57:56.885754,0,0,-2,-2,-1,1,-18,3
18:57:56.893747,-2,-1,-1,0,-2,-3,0,-5
18:57:56.908738,3,-9,-2,-1,-3,-1,3,6
18:57:56.908738,-4,-2,-4,-2,-3,-4,-3,-2
18:57:56.930726,12,5,1,-1,-4,-4,-18,11
18:57:56.931723,-1,0,-1,-3,-1,2,1,0
18:57:56.945714,-7,-5,-5,-1,-2,-5,-10,-13
18:57:56.953712,6,1,-1,-3,1,7,14,6
18:57:56.968700,-3,-2,-2,-2,-5,-1,-7,-2
18:57:56.968700,-4,-2,-2,-2,-2,-3,-4,-8
18:57:56.990689,-5,-2,-1,-2,-1,-6,-36,-5
18:57:56.998684,1,-1,0,-2,-2,-3,4,2
18:57:57.005678,-2,-1,0,1,-2,0,1,3
18:57:57.013675,-3,-3,-3,-1,-1,3,-2,-4
18:57:57.028663,-3,-3,-5,-2,-4,0,-2,-2
18:57:57.028663,-13,-7,-1,0,0,-2,-13,-20
18:57:57.050652,21,5,2,1,1,5,-12,10
18:57:57.051648,-7,-4,0,-1,-1,-1,-3,-9
18:57:57.065642,-2,-2,-2,-1,-2,2,-1,-1
18:57:57.073635,-2,-2,-1,-3,-2,-1,2,-4
18:57:57.088628,-2,-1,-2,-4,-1,-1,-2,-1
18:57:57.088628,-3,-1,-2,1,-1,-2,-10,-1
18:57:57.110612,-2,-1,0,-1,-2,-2,3,-1
18:57:57.111611,1,-1,1,-4,-1,-2,1,-4
18:57:57.125603,-4,-1,0,-1,4,-1,-3,-10
18:57:57.133601,11,3,-3,0,-1,0,9,10
18:57:57.148592,-4,-4,1,1,0,1,-2,-5
18:57:57.148592,-1,1,0,-1,1,-1,-2,-12
