timestamp,emg1,emg2,emg3,emg4,emg5,emg6,emg7,emg8
16:42:40.882869,-1,2,1,-5,-3,1,-2,-1
16:42:40.883867,-3,-2,1,2,2,-5,-1,-2
16:42:40.888865,-1,-1,-3,2,0,-1,-2,1
16:42:40.904856,0,0,0,-1,0,0,2,0
16:42:40.906853,1,-1,-3,-1,0,-1,0,-1
16:42:40.932838,-1,-4,-1,12,-4,-1,0,-2
16:42:40.933837,3,4,-2,0,-2,-3,-1,2
16:42:40.940843,5,0,-4,-5,0,0,-1,-1
16:42:40.948828,2,-1,-1,-13,-47,-3,1,-1
16:42:40.962818,3,-1,0,2,8,3,-3,-1
16:42:40.963818,-3,0,0,0,-3,-4,-3,-3
16:42:40.985803,0,-4,-1,-3,-4,2,2,1
16:42:40.985803,-3,0,-1,0,-2,-3,-2,-3
16:42:41.007789,0,1,0,4,3,1,1,3
16:42:41.008790,0,2,-3,3,2,-4,2,-2
16:42:41.037771,4,-2,-2,1,1,-1,-4,0
16:42:41.038772,-1,-4,-1,-15,-8,0,-6,-1
16:42:41.044770,1,2,-3,4,7,-1,-2,-2
16:42:41.045767,5,2,1,-16,-47,0,1,2
16:42:41.060766,-1,0,-2,0,8,1,0,-4
16:42:41.068752,-2,-3,2,0,1,-2,-1,-3
16:42:41.082743,-5,-7,-6,0,-2,-1,-1,2
16:42:41.083743,-1,2,-2,1,3,-2,-2,-1
16:42:41.105730,0,-2,-3,-4,2,1,0,1
16:42:41.105730,1,1,0,1,2,-1,-2,-2
16:42:41.120721,-1,-1,3,-1,1,2,-1,-1
16:42:41.135712,1,2,0,13,2,2,0,-1
16:42:41.142706,2,0,1,-4,0,-2,-2,3
16:42:41.143707,1,-3,-1,-1,-9,-1,-1,1
16:42:41.165693,1,0,0,3,-8,3,-1,1
16:42:41.165693,6,0,-2,-1,11,-3,-3,-1
16:42:41.180683,-1,-3,-1,-2,0,2,-1,0
16:42:41.187696,-2,-6,-1,0,-4,-1,-3,-2
16:42:41.202691,-4,-1,0,1,4,-1,-4,-3
16:42:41.203670,-3,-1,-1,-1,-1,1,-4,-3
16:42:41.225654,0,-2,-3,-2,-6,0,2,0
16:42:41.225654,0,1,-3,1,-5,-2,-2,-1
16:42:41.240646,1,-2,-4,-2,1,-2,-1,-1
16:42:41.248642,1,-2,-2,-1,1,-2,0,-3
16:42:41.262657,-3,-3,0,1,-1,2,-1,1
16:42:41.263632,-1,-1,1,-1,-4,-2,-4,2
16:42:41.285618,0,-4,0,-8,-33,-1,-2,1
16:42:41.286618,-5,-2,-1,15,12,-1,1,1
16:42:41.300608,-2,-3,-1,5,4,0,1,-3
16:42:41.307607,1,1,-1,-7,-9,-5,-1,1
16:42:41.322598,-1,2,-1,0,4,1,-1,-2
16:42:41.323594,-1,0,1,0,-5,-1,-1,0
16:42:41.345582,-1,-6,-2,-6,-4,0,-4,0
16:42:41.345582,-1,0,-1,2,2,1,-2,-3
16:42:41.360577,-4,-2,1,-1,2,0,1,-2
16:42:41.368567,-3,-3,-3,-3,0,-1,-1,4
16:42:41.382559,0,2,1,0,3,0,-3,1
16:42:41.383556,-1,-3,-4,7,19,1,-1,-4
16:42:41.405544,-6,-4,-1,4,11,-2,-1,0
16:42:41.406542,-3,-3,-3,-5,1,2,1,0
16:42:41.420549,-1,-2,-1,4,4,1,-3,-1
16:42:41.428530,-4,-2,2,0,-6,-6,-1,-1
16:42:41.442522,-4,-2,-2,-2,5,-1,2,2
16:42:41.443519,-1,0,1,-2,-3,-1,-1,-2
16:42:41.465507,0,-2,1,-3,-4,-2,-3,0
16:42:41.466507,2,1,0,1,3,2,-3,1
16:42:41.487496,-5,-3,3,1,-1,1,-4,1
16:42:41.488495,0,-1,-1,-3,-2,0,0,2
16:42:41.503482,-4,1,-2,-15,-47,0,-3,-1
16:42:41.503482,-1,-7,-3,4,9,0,-2,-2
16:42:41.525470,-3,-6,0,-19,-8,-1,-1,-3
16:42:41.526469,-5,0,-3,-2,-2,-4,-4,-2
16:42:41.555451,-3,-2,1,-11,-5,-1,1,0
16:42:41.556449,-3,0,0,5,3,-4,-2,2
16:42:41.562449,-1,-1,-1,-5,-1,0,0,-1
16:42:41.563447,4,-3,2,-1,4,-1,-2,3
16:42:41.585432,2,-1,1,-1,2,0,-1,0
16:42:41.586431,0,1,-2,-9,-25,-2,-1,-2
16:42:41.608418,1,-2,-3,3,8,-1,-2,1
16:42:41.608418,0,-4,-3,0,1,1,-3,-2
16:42:41.623408,1,-1,1,-6,-4,-3,1,1
16:42:41.623408,-6,-1,-4,0,-2,0,-3,0
16:42:41.645395,-4,-3,2,-1,-2,-2,-2,0
16:42:41.646395,-4,-1,2,1,2,-5,-5,-6
16:42:41.668382,-1,0,-1,6,1,0,1,-3
16:42:41.669388,0,0,0,-7,-7,-2,0,1
16:42:41.683372,-3,-4,-1,-2,2,-2,-1,1
16:42:41.683372,0,1,1,2,-2,-4,-1,-3
16:42:41.705358,0,-2,-2,-11,-23,-2,1,-2
16:42:41.706358,1,1,2,3,9,-1,2,1
16:42:41.728346,-1,-1,-2,0,0,-1,-1,-3
16:42:41.728346,-1,-3,-1,-1,-2,-2,-4,-2
16:42:41.743334,-2,-2,-2,-3,0,0,-1,1
16:42:41.744335,-1,0,0,1,1,0,-3,3
16:42:41.765321,-3,-1,-1,1,-1,0,0,1
16:42:41.766320,7,2,1,9,7,1,-2,-1
16:42:41.788309,-2,-3,0,-3,-4,-2,-3,0
16:42:41.789308,-4,1,-1,-1,1,0,0,0
16:42:41.803300,0,0,2,6,28,2,1,2
16:42:41.811292,-1,1,0,-4,-1,-1,-2,0
16:42:41.825285,1,2,-1,2,7,-1,-1,-2
16:42:41.826285,0,-1,-2,-1,1,-2,-2,1
16:42:41.848270,-1,-1,-2,-1,-3,0,1,-2
16:42:41.856264,1,-2,1,-5,-6,-6,-3,0
16:42:41.871255,-1,3,1,6,-1,0,-1,-6
16:42:41.871255,-3,0,0,-2,-4,-2,0,1
16:42:41.886245,2,-2,0,0,0,-1,0,-3
16:42:41.886245,-1,1,1,12,4,-3,1,2
16:42:41.908232,-3,1,0,-8,-25,0,-4,-5
16:42:41.909232,-1,-1,1,4,15,-1,-2,-4
16:42:41.923225,-4,-1,-1,1,5,2,0,-2
16:42:41.931218,0,-4,-1,-3,-4,-3,-2,1
16:42:41.946209,0,0,-1,-2,0,-2,0,2
16:42:41.947208,-1,-3,-4,0,-6,-3,0,1
16:42:41.968197,-1,1,-1,3,1,0,-2,1
16:42:41.969195,-1,0,-1,-3,0,1,-3,-3
16:42:41.983186,-1,-2,-3,-3,-4,-3,-1,-2
16:42:41.991181,-2,1,1,30,19,2,1,-2
16:42:42.006171,-3,-2,1,-9,-27,-1,0,1
16:42:42.006171,-1,1,-4,1,7,-1,-1,-2
16:42:42.036153,-3,-7,-2,-1,0,-3,-2,-4
16:42:42.036153,-2,1,-2,-3,-3,-2,1,2
16:42:42.043151,-1,-1,1,0,-7,-1,0,-2
16:42:42.051145,1,-1,1,0,1,1,1,-1
16:42:42.066134,1,1,-1,-1,-7,-1,-2,-3
16:42:42.066134,1,-2,-2,2,-1,-1,-1,1
16:42:42.088123,-2,-4,-2,-3,-2,-1,0,-2
16:42:42.089120,-1,-2,-1,1,10,1,-1,-2
16:42:42.103113,1,-1,1,1,6,-3,1,0
16:42:42.111106,-1,0,0,-3,2,0,0,0
16:42:42.126100,-1,-3,-2,-6,-5,-2,0,1
16:42:42.126100,-2,0,0,20,6,-1,0,0
16:42:42.148083,-2,1,0,-2,-2,-3,-2,-3
16:42:42.149083,0,-1,0,0,3,-3,-3,2
16:42:42.163073,-4,3,-2,-1,-9,-2,0,-2
16:42:42.171072,-4,2,-3,1,1,-2,1,0
16:42:42.186062,0,1,-4,-5,-2,-2,-1,-2
16:42:42.186062,-2,-1,-1,12,26,-4,-3,-1
16:42:42.208049,-2,-1,0,-6,-5,1,-3,0
16:42:42.209045,-3,2,-1,9,7,1,-1,-1
16:42:42.224037,0,1,-2,-1,6,-1,-1,0
16:42:42.231031,0,-2,1,-5,-3,-2,-3,-1
16:42:42.246022,1,0,-3,-1,-2,-3,-1,-1
16:42:42.246022,-3,-1,-2,-3,-10,-4,0,1
16:42:42.268011,0,2,1,3,6,0,-2,-1
16:42:42.269009,-2,0,1,-1,-1,0,-1,0
16:42:42.282999,-2,-3,2,1,-2,-4,-4,-3
16:42:42.290997,1,2,-1,-1,-8,-1,-1,0
16:42:42.305986,1,2,0,3,10,-4,0,-1
16:42:42.305986,-1,-4,-1,1,0,1,-1,-1
16:42:42.327974,1,0,-3,-3,-4,-2,-3,-2
16:42:42.328973,1,-3,-2,-14,-6,0,-2,-2
16:42:42.343963,-1,3,-2,4,1,-2,-2,1
16:42:42.350959,1,0,-5,-2,5,2,0,0
16:42:42.365948,9,2,3,0,-4,-7,-1,-3
16:42:42.365948,-4,1,-4,2,8,1,-3,-1
16:42:42.388933,-1,1,0,-2,-4,-1,0,-2
16:42:42.388933,-2,-1,-1,-14,-42,-2,1,-1
16:42:42.403927,-4,-2,0,4,11,-1,0,-3
16:42:42.410923,-3,2,-1,-1,-2,-2,0,1
16:42:42.425914,-1,-1,-3,0,-1,-3,-2,1
16:42:42.425914,0,-1,0,-4,-10,-3,-1,-1
16:42:42.447900,3,0,-2,7,2,2,0,-3
16:42:42.448897,0,-2,-1,7,-2,0,-3,1
16:42:42.470886,0,-2,-2,-4,-1,-2,-2,-3
16:42:42.471882,-3,-1,-4,-3,3,-1,1,-2
16:42:42.485876,-4,-4,1,10,26,0,-1,-1
16:42:42.486874,0,-1,2,-3,1,-3,-1,0
16:42:42.508863,-4,-2,-1,2,3,1,1,-2
16:42:42.508863,0,-2,2,2,3,-4,-4,-1
16:42:42.530848,-1,-1,-2,0,-3,-4,3,-1
16:42:42.531847,1,1,1,-1,1,-3,-4,1
16:42:42.545839,1,-1,-1,-3,-1,-1,0,-2
16:42:42.546836,0,-1,-1,4,11,4,-1,0
16:42:42.568822,-2,0,-1,3,2,-4,-2,-1
16:42:42.568822,-3,2,-2,-1,2,-1,-1,-1
16:42:42.590809,0,-2,-3,-2,-4,1,1,2
16:42:42.591811,0,1,-2,3,16,-1,2,-2
16:42:42.605802,-3,4,0,2,10,-2,0,-3
16:42:42.606799,0,1,-1,2,5,-1,1,-1
16:42:42.628785,2,1,2,9,0,-1,2,1
16:42:42.628785,-2,-4,-5,-5,0,-4,-3,2
16:42:42.650773,-5,-3,-1,-1,2,1,0,-1
16:42:42.651772,-2,2,-2,-3,-9,-4,-3,-1
16:42:42.673757,-4,2,-1,6,5,0,-1,0
16:42:42.673757,0,-4,-4,-1,3,3,0,-3
16:42:42.688749,0,-1,-2,-6,-8,-3,0,-2
16:42:42.688749,0,2,0,2,14,-2,-2,-4
16:42:42.710737,-1,1,-3,1,12,-3,0,0
16:42:42.711734,-2,0,-2,1,4,-3,1,0
16:42:42.725725,3,-2,-4,-1,3,1,-1,4
16:42:42.726727,0,1,0,0,-1,-1,-3,-1
16:42:42.748712,-5,-5,0,5,-8,-1,-2,-1
16:42:42.748712,0,-4,-2,-2,1,-4,-2,-2
16:42:42.770700,-4,-1,0,-12,-1,1,-4,-2
16:42:42.771696,-1,-3,0,-19,-45,0,-2,0
16:42:42.785690,-2,-1,0,2,9,0,-1,0
16:42:42.786689,-3,-3,-1,-3,0,1,0,-1
16:42:42.808673,-1,1,0,0,1,-1,-1,0
16:42:42.809675,-1,-4,-2,-4,-6,-4,1,1
16:42:42.830669,0,1,-1,1,1,1,-2,-4
16:42:42.831661,2,-1,0,-4,-2,0,-1,-1
16:42:42.845653,-3,-3,0,2,-2,-3,-2,-3
16:42:42.846651,0,-1,-1,12,27,1,-2,-3
16:42:42.868637,12,4,1,-1,7,-1,1,5
16:42:42.868637,-4,-2,1,0,-1,-2,-1,-1
16:42:42.891623,0,1,1,0,-2,2,1,-1
16:42:42.891623,-4,-4,-5,-2,3,-2,0,-1
16:42:42.905616,-1,0,-1,-4,-4,0,0,-3
16:42:42.906616,-2,1,1,-2,-1,-3,0,-3
16:42:42.928599,-3,-3,0,-2,1,1,-2,-1
16:42:42.929600,-4,-2,-1,5,4,-5,-1,3
16:42:42.951587,-2,-1,-2,-8,-19,1,-3,-3
16:42:42.958583,-3,0,-1,6,3,0,-2,-3
16:42:42.965578,-3,-2,1,-3,-3,-3,-1,-1
16:42:42.966578,0,0,1,30,2,-5,-2,-2
16:42:42.988564,-1,-2,-2,-3,3,-3,-4,-5
16:42:42.988564,-1,-1,0,-6,-7,-3,-2,-1
16:42:43.010550,-1,0,0,4,2,2,-2,-4
16:42:43.011551,1,-1,1,-5,0,-1,1,1
16:42:43.026538,2,-1,-2,-11,-29,-6,1,-1
16:42:43.026538,0,-4,-1,1,3,0,-2,-2
16:42:43.048525,2,-3,0,2,1,1,-1,-3
16:42:43.048525,-1,-3,1,0,2,-1,-1,-1
16:42:43.071511,0,4,-5,-16,-4,3,-1,1
16:42:43.071511,-2,3,0,-3,-5,-2,0,0
16:42:43.086501,-1,-2,2,22,31,-2,0,0
16:42:43.086501,-1,-1,-2,-3,-2,-3,-2,0
16:42:43.108490,4,1,3,4,7,0,1,0
16:42:43.109490,2,0,0,-2,-3,0,-3,1
16:42:43.131473,2,-1,-2,0,0,-3,0,-2
16:42:43.131473,1,0,0,3,1,1,-3,0
16:42:43.146466,2,2,0,5,24,3,1,-1
16:42:43.153463,-4,1,-2,-16,-37,-2,-3,0
16:42:43.176446,4,0,-1,9,24,-1,-2,4
16:42:43.176446,-1,-3,-2,-5,0,-3,1,1
16:42:43.191436,-2,1,-3,-5,-5,-3,2,-4
16:42:43.191436,-4,-3,1,3,0,0,1,-1
16:42:43.213425,0,1,-1,-2,-1,0,-2,1
16:42:43.214422,0,-1,-3,21,41,0,1,1
16:42:43.236410,-2,-1,-4,-26,-21,0,0,1
16:42:43.236410,2,-3,-3,6,18,-2,-1,-2
16:42:43.251400,-4,0,-2,-4,1,-1,-1,-1
16:42:43.251400,2,-3,2,-1,-6,-3,-1,-3
16:42:43.274386,-3,-1,0,4,1,0,1,-2
16:42:43.275384,-3,-3,-1,-1,2,2,1,-3
16:42:43.288379,5,2,-1,-3,5,2,0,3
16:42:43.289378,-2,-5,-2,3,16,2,0,-3
16:42:43.311362,0,-2,-1,-2,-3,-4,-4,-1
16:42:43.311362,-5,-3,-3,-13,-3,2,-1,2
16:42:43.333348,-1,0,1,-5,-39,-4,-3,-1
16:42:43.334350,0,-2,-2,2,11,1,-1,-3
16:42:43.348339,2,0,-3,0,-42,-3,-2,0
16:42:43.349339,-1,-1,-2,6,12,3,-3,-1
16:42:43.371325,1,-1,-2,-6,-18,-6,-3,1
16:42:43.371325,-5,-2,-2,-20,-26,-2,0,-1
16:42:43.393314,-3,-1,2,5,18,3,0,-5
16:42:43.394313,1,-2,1,5,12,-5,-2,1
16:42:43.409302,1,0,1,-5,-8,-6,-1,-1
16:42:43.409302,0,-2,1,-3,5,-4,-1,1
16:42:43.431287,0,-2,-2,-4,-1,3,2,1
16:42:43.431287,-3,0,-3,-1,-3,0,-3,-1
16:42:43.453277,1,-2,0,11,8,-4,0,-3
16:42:43.454275,-1,-2,-3,-6,0,-2,-3,-3
16:42:43.468264,-4,-2,-1,4,20,-1,1,1
16:42:43.469266,1,-3,-1,16,41,3,0,3
16:42:43.491253,-3,0,-3,11,1,-4,-1,-3
16:42:43.491253,1,-2,0,-1,16,3,0,-1
16:42:43.513239,-2,-2,-1,-5,-35,-7,-3,1
16:42:43.514236,-2,-1,-4,9,9,2,0,3
16:42:43.528230,-1,-2,2,-14,-26,-3,-3,-2
16:42:43.529227,2,0,-2,4,12,-4,-1,1
16:42:43.551213,-4,-2,0,0,-4,4,2,-2
16:42:43.551213,0,-1,-2,-7,-10,-6,-1,2
16:42:43.573202,1,1,3,11,-24,1,-2,-1
16:42:43.574203,-1,-4,-5,-4,11,0,-1,-5
16:42:43.588193,-1,0,-3,-5,3,-1,1,1
16:42:43.589190,-6,-3,0,0,-2,1,-1,-3
16:42:43.611176,-7,-3,1,15,25,-2,-3,-2
16:42:43.611176,-1,-1,1,-4,-3,-3,0,-3
16:42:43.633164,-3,-1,-3,-5,-9,-6,-2,0
16:42:43.634161,1,1,0,3,-4,-1,-2,2
16:42:43.648155,0,5,4,4,5,2,-1,0
16:42:43.649152,0,0,1,-16,-63,2,-1,0
16:42:43.671141,0,-2,-3,2,1,-3,-1,-3
16:42:43.671141,2,-3,0,5,18,1,-2,1
16:42:43.693128,3,1,-2,0,-10,-1,0,1
16:42:43.694124,1,1,-2,9,-5,0,0,0
16:42:43.708118,1,0,3,-3,-3,0,1,3
16:42:43.709116,0,0,1,2,2,-2,0,-1
16:42:43.738100,-5,-5,-2,2,2,-2,-1,-2
16:42:43.739097,1,-1,1,2,15,3,-3,2
16:42:43.753091,-2,-1,-1,-16,-57,-6,0,-1
16:42:43.754088,-2,-3,0,3,1,-3,-2,0
16:42:43.768080,0,0,-3,-2,-6,-5,-1,0
16:42:43.769078,1,0,0,-4,-5,1,-2,1
16:42:43.791067,3,-2,1,1,-5,-4,-4,-1
16:42:43.792067,-4,0,-4,-4,-4,-3,-3,-4
16:42:43.813053,-2,-1,-2,-19,-8,-1,-1,1
16:42:43.814050,-4,-2,-2,15,19,-3,-2,0
16:42:43.829044,0,0,0,-16,-13,4,-2,-1
16:42:43.829044,0,0,1,1,-3,1,0,0
16:42:43.851027,3,0,-1,3,-2,1,-1,1
16:42:43.851027,-1,-3,-1,-5,-9,-2,-3,-3
16:42:43.873017,0,-1,0,11,18,3,-1,-2
16:42:43.874016,2,-1,-3,-1,7,-3,-4,-1
16:42:43.888007,2,2,-1,-3,-1,0,3,-4
16:42:43.889004,-2,-5,-2,0,23,-2,-1,-2
16:42:43.910993,-2,0,-1,2,5,-5,-1,-1
16:42:43.910993,-5,-6,-1,-2,7,-1,-2,-4
16:42:43.940975,-5,0,-2,-5,-19,-4,0,0
16:42:43.941975,0,2,0,4,15,-7,-1,1
16:42:43.947966,-5,-3,-8,-20,-34,-1,-2,-1
16:42:43.948968,2,2,0,10,10,1,-2,-1
16:42:43.970956,-3,3,-2,-18,-48,0,-1,-2
16:42:43.970956,1,0,0,4,13,0,0,-1
16:42:43.992941,0,-2,3,12,-1,-1,-3,-1
16:42:43.993939,-3,-1,-4,-11,-24,-4,-2,4
16:42:44.015927,1,-3,1,7,15,4,0,0
16:42:44.015927,-1,-1,-4,-16,-25,-1,-1,2
16:42:44.030918,2,-3,0,-8,7,2,-3,-5
16:42:44.031914,-2,2,2,5,-26,-6,-2,-3
16:42:44.053902,-1,-4,-1,8,35,2,-3,-1
16:42:44.060899,-3,1,-4,13,37,2,-2,-2
16:42:44.068893,1,-1,-6,-9,-23,-6,-3,-2
16:42:44.075890,-1,-1,3,-5,10,4,2,1
16:42:44.091881,3,2,4,0,-8,-16,0,0
16:42:44.091881,0,-1,0,19,8,4,-1,4
16:42:44.113865,0,2,-9,-6,-20,-8,1,2
16:42:44.113865,0,4,-8,0,127,-9,0,0
16:42:44.135853,-5,-7,4,25,127,24,-5,-6
16:42:44.136850,4,11,8,19,72,55,8,9
16:42:44.150843,-8,-6,-6,34,127,24,-11,-6
16:42:44.151841,0,0,28,77,81,-1,5,0
16:42:44.172831,6,13,-39,-128,-128,-3,5,0
16:42:44.173827,-18,-31,-28,23,71,3,-19,-21
16:42:44.195816,9,10,17,-7,-128,33,17,10
16:42:44.196813,2,13,-8,-124,-128,-128,-12,-3
16:42:44.210807,5,24,127,127,127,127,17,5
16:42:44.211806,-12,-50,-107,127,38,-65,-23,-6
16:42:44.233790,15,0,3,-128,-128,-128,10,16
16:42:44.233790,-12,-30,-33,-128,-128,124,0,-8
16:42:44.255779,-2,2,-16,46,-128,-128,-11,-5
16:42:44.256777,-19,-41,-57,-128,-128,127,0,-17
16:42:44.270770,2,86,64,-35,-128,-20,7,-2
16:42:44.271772,-30,-73,7,-45,32,1,-16,-25
16:42:44.293753,6,-1,0,10,127,-3,5,8
16:42:44.293753,36,52,46,127,127,-76,23,36
16:42:44.315741,-19,-70,-58,-128,-128,-81,-9,-16
16:42:44.316741,0,26,32,127,127,44,-8,-7
16:42:44.323737,18,114,111,-128,127,47,17,11
16:42:44.330730,-55,-128,-128,-73,-128,-128,-61,-42
16:42:44.345723,5,34,52,-36,-110,-32,-2,1
16:42:44.360713,5,-35,-95,-128,-128,-128,-10,7
16:42:44.368707,-6,-55,-123,127,127,127,27,1
16:42:44.368707,23,63,105,-79,-128,-110,2,18
16:42:44.383697,-34,-101,-117,-4,127,127,-11,-23
16:42:44.390696,24,127,127,-25,-128,-128,-11,2
16:42:44.405686,-5,-117,-120,-128,30,127,12,10
16:42:44.413681,-36,-128,-128,127,127,127,9,-1
16:42:44.428669,67,127,127,-128,-128,-128,15,31
16:42:44.428669,-49,-31,-5,-99,-128,-128,-34,-35
16:42:44.443662,-30,-23,-4,-31,12,-45,-18,-10
16:42:44.450656,10,-25,-86,-128,-128,-128,-3,14
16:42:44.473641,-7,-63,-63,68,64,-57,0,0
16:42:44.473641,9,16,0,127,-128,-16,-4,0
16:42:44.495630,-10,8,-9,-128,-128,-57,-19,-18
16:42:44.496627,10,5,-19,-128,-128,-128,0,11
16:42:44.510621,-3,19,34,-88,-54,-17,-11,-14
16:42:44.511618,9,19,9,-128,-128,-44,0,5
16:42:44.533606,10,24,23,-123,-119,-23,1,5
16:42:44.533606,2,-6,2,61,-128,127,0,1
16:42:44.555593,11,19,-7,-111,-128,-128,-11,2
16:42:44.556590,6,24,22,44,-30,-15,-4,-1
16:42:44.570584,5,8,-7,-128,-128,-117,-4,2
16:42:44.571581,-12,-31,-20,52,127,127,7,-6
16:42:44.593570,14,11,3,-33,-10,-16,9,12
16:42:44.593570,9,38,27,-3,127,127,12,6
16:42:44.615555,-3,-1,-8,-42,-69,-2,-8,-4
16:42:44.616552,-4,-40,-43,127,89,27,1,4
16:42:44.630544,23,51,37,8,127,-91,8,16
16:42:44.631543,4,30,8,-56,-128,-87,-7,-2
16:42:44.660527,0,6,6,-113,-128,-128,-12,-4
16:42:44.661527,-35,-78,-68,-32,-128,-50,-19,-21
16:42:44.675519,-6,-9,-10,-73,11,-1,-9,-7
16:42:44.676517,7,40,71,6,-5,127,-2,-3
16:42:44.691508,6,-2,-4,18,-100,-72,5,5
16:42:44.691508,1,34,41,-11,63,4,3,2
16:42:44.713495,2,4,5,-32,-24,-22,-2,-2
16:42:44.714491,-2,-14,-22,72,127,-46,4,3
16:42:44.735481,-16,-27,-7,-50,-35,22,-3,-9
16:42:44.736478,-16,-41,-37,65,6,127,5,-8
16:42:44.751468,8,35,54,116,48,32,2,5
16:42:44.758467,12,33,32,-114,-128,-128,-7,7
16:42:44.773455,5,-1,2,16,-111,30,6,4
16:42:44.774455,23,27,20,127,-127,-37,9,19
16:42:44.795444,10,16,17,-128,-128,-29,3,6
16:42:44.796441,-10,-19,-39,7,-128,-33,-15,-13
16:42:44.811432,5,11,12,20,-20,19,6,4
16:42:44.818430,9,10,3,127,127,116,12,7
16:42:44.833418,2,-10,-26,-98,-128,-47,-7,1
16:42:44.833418,-17,-41,-36,69,121,20,-6,-9
16:42:44.856408,4,16,14,3,-17,-67,-1,-2
16:42:44.856408,9,14,-12,-128,-128,-69,0,6
16:42:44.871396,-7,-19,-22,-60,-42,12,-7,-7
16:42:44.878393,8,11,13,-42,-51,-29,2,7
16:42:44.893384,2,-1,-7,21,-41,-28,-5,1
16:42:44.894381,-1,-17,-25,-92,37,18,1,0
16:42:44.923365,8,17,-11,-36,-128,-12,1,9
16:42:44.924362,8,15,24,-15,15,67,7,6
16:42:44.931357,-4,-13,-12,17,-128,-45,-4,-2
16:42:44.938356,4,4,-5,-77,-84,-19,-4,3
16:42:44.953346,-30,-49,-40,37,3,26,-20,-24
16:42:44.954343,5,10,4,92,127,-39,0,4
16:42:44.984325,1,3,8,2,-73,-15,-2,-3
16:42:44.984325,-12,-23,-35,-19,22,-1,-8,-8
16:42:44.991322,-1,3,-6,-103,-72,-4,1,1
16:42:44.998318,0,1,28,46,127,96,12,-3
16:42:45.013306,-2,-5,-12,-59,-45,-14,-4,1
16:42:45.014307,4,7,8,48,-12,-8,1,1
16:42:45.036294,-34,-65,-84,-54,48,-39,-27,-26
16:42:45.036294,5,6,8,-3,-12,-1,2,3
16:42:45.051282,0,4,7,4,3,7,1,3
16:42:45.058281,8,8,10,8,13,1,10,0
16:42:45.073270,-77,-15,-28,-25,-29,-22,-33,-41
16:42:45.074270,-14,20,13,7,11,4,-16,27
16:42:45.096255,-25,-7,-1,4,1,19,4,20
16:42:45.096255,-1,9,10,5,-4,-2,5,-20
16:42:45.111249,100,-8,19,19,31,30,34,22
16:42:45.126236,-26,-16,-13,-9,-12,-18,-72,-3
16:42:45.133232,94,16,25,22,39,25,127,-31
16:42:45.134231,127,-63,-19,-15,-19,6,-112,87
16:42:45.156221,-99,116,21,18,-2,-58,-128,-128
16:42:45.163214,127,-20,-5,1,3,66,-128,50
16:42:45.171211,-56,27,17,27,-7,-29,127,2
16:42:45.178207,-10,22,15,3,14,12,61,16
16:42:45.201189,14,1,-9,-31,-18,-7,-24,-2
16:42:45.201189,11,0,9,76,49,12,-32,-5
16:42:45.216180,9,-3,-3,32,-62,-1,-22,-2
16:42:45.216180,-29,-25,-16,-29,-11,-13,-9,-3
16:42:45.231171,0,13,-22,-102,-128,-57,-19,-11
16:42:45.238170,-13,-2,-7,49,124,19,-6,-13
16:42:45.253160,-48,6,7,-10,81,-21,-8,-14
16:42:45.261156,1,7,-20,-128,-128,-56,-41,-14
16:42:45.276146,-30,-17,9,10,49,5,1,-16
16:42:45.276146,-22,-96,-14,-12,-21,40,2,-2
16:42:45.298132,63,49,8,12,-26,-28,3,17
16:42:45.299131,-115,20,22,41,46,-4,12,-76
16:42:45.313123,31,9,-20,-40,-128,-8,-89,4
16:42:45.314120,-102,-26,1,-73,-96,-79,9,-14
16:42:45.336109,-79,-22,-11,-18,14,33,127,-34
16:42:45.336109,-6,8,-13,-48,-20,-33,101,-25
16:42:45.358096,72,-7,1,-14,-9,25,64,37
16:42:45.359095,-12,20,6,76,67,-24,-38,-19
16:42:45.373083,-13,-38,-14,7,-128,-26,120,-26
16:42:45.381080,-70,-27,-13,-50,115,0,31,-21
16:42:45.396070,-6,3,6,127,37,15,-36,-10
16:42:45.396070,17,10,8,3,-12,9,56,3
16:42:45.418061,49,18,9,-61,-46,0,17,10
16:42:45.419055,2,-4,2,47,15,-4,4,15
16:42:45.433046,28,8,6,-4,1,24,-18,19
16:42:45.441044,13,4,6,43,-8,2,2,6
16:42:45.456035,-18,7,-2,-33,-128,-38,-9,-22
16:42:45.456035,57,26,-12,-18,56,8,13,46
16:42:45.478021,-4,20,-11,-128,-108,16,-5,-15
16:42:45.479020,10,2,0,16,32,23,2,4
16:42:45.493010,-6,-10,-8,-4,25,8,12,-2
16:42:45.501006,-8,-3,2,17,-15,-9,-7,-7
16:42:45.515995,1,-12,5,38,-120,-23,0,-4
16:42:45.516996,-7,-1,1,0,30,23,-4,-2
16:42:45.537983,30,9,-6,-104,1,11,19,27
16:42:45.538984,-26,20,3,-24,-38,0,-13,-17
16:42:45.553974,-21,-8,-8,47,-15,2,-13,-9
16:42:45.560970,1,3,-12,-15,127,13,2,3
16:42:45.575960,5,3,1,-5,75,7,5,2
16:42:45.576959,10,4,1,17,28,-11,-6,5
16:42:45.597946,-1,-1,-3,-21,-56,-5,-5,-4
16:42:45.598945,-5,1,-4,-9,-15,14,30,23
16:42:45.613936,14,-4,-3,-15,-111,-20,14,3
16:42:45.620932,-5,-4,-1,17,20,2,5,-2
16:42:45.635923,-4,-11,-10,22,5,-2,-9,-12
16:42:45.636923,5,6,9,27,-32,-1,5,4
16:42:45.658907,-5,-7,-4,27,18,-4,-2,-5
16:42:45.658907,-6,2,-4,-21,-27,-7,0,-6
16:42:45.673897,2,2,1,-7,-5,-8,-5,-8
16:42:45.680894,1,1,3,11,13,6,6,10
16:42:45.695886,-3,-2,-2,-13,7,2,2,0
16:42:45.696883,1,-6,-10,-14,-38,-8,-6,-6
16:42:45.717872,-5,-3,2,70,54,2,-3,-7
16:42:45.718870,0,2,-3,9,-76,-10,2,4
16:42:45.733868,-4,-8,1,6,28,-1,-8,-9
16:42:45.740858,10,-9,-4,7,26,1,-1,-4
16:42:45.755846,-7,5,1,-8,-46,-5,-4,-5
16:42:45.756845,-11,-5,-1,10,20,-9,-13,-11
16:42:45.778835,-7,-1,0,-5,-37,2,-2,-2
16:42:45.778835,2,5,7,9,105,-3,-3,-1
16:42:45.793824,-2,5,7,14,35,12,-4,0
16:42:45.800820,-3,0,-2,-4,3,5,1,1
16:42:45.815811,-3,4,-4,-21,-6,-3,-2,-1
16:42:45.816808,0,-2,0,-21,7,1,-3,0
16:42:45.838796,1,0,0,5,1,-3,-3,-3
16:42:45.838796,3,-2,-5,-18,-7,-3,-3,2
16:42:45.853788,-6,0,-1,4,23,-1,-6,-2
16:42:45.860784,-8,-7,-4,1,7,3,0,-1
16:42:45.875775,1,-1,-2,-45,-86,-12,-8,-3
16:42:45.876771,-5,-5,-2,12,0,-11,-1,-1
16:42:45.898758,1,2,-3,-16,-12,2,2,3
16:42:45.898758,1,0,-6,-55,8,2,3,0
16:42:45.913749,5,-2,3,14,24,-1,-1,3
16:42:45.928739,0,1,-2,-12,2,-2,1,-1
16:42:45.935737,-1,-3,-1,8,-6,-1,-1,-1
16:42:45.936734,0,3,1,-9,-34,4,6,2
16:42:45.958722,6,1,1,4,-36,-15,-1,4
16:42:45.958722,-4,3,0,6,22,-8,1,1
16:42:45.973714,0,2,-2,-56,-78,-4,1,3
16:42:45.980707,-1,-3,0,23,54,9,-1,-3
16:42:45.995700,2,-2,-1,-13,8,2,2,-2
16:42:45.996698,-3,1,1,-1,-1,5,2,-1
16:42:46.017685,1,1,0,5,10,-3,-4,0
16:42:46.018683,-1,-1,-1,-8,-15,-5,-5,-2
16:42:46.032676,8,-2,1,3,-19,2,-3,0
16:42:46.040670,1,3,4,6,6,-6,-1,-2
16:42:46.055661,1,1,-1,-16,-6,-10,-6,-5
16:42:46.055661,0,-1,-2,19,-9,5,1,1
16:42:46.078645,5,-3,0,15,60,-1,-2,2
16:42:46.080645,1,0,-3,-3,0,0,2,-2
16:42:46.092637,-3,-5,-1,4,-3,1,-2,2
16:42:46.100633,0,0,0,6,-2,-1,1,0
16:42:46.115623,-3,-2,3,-1,-37,4,4,1
16:42:46.115623,0,0,-3,-3,40,4,-1,0
16:42:46.137610,-1,3,2,3,8,1,-2,1
16:42:46.138608,1,2,-1,-31,10,-1,0,3
16:42:46.152600,-6,-4,4,8,41,0,-5,-7
16:42:46.160600,3,1,-1,-10,2,0,-1,2
16:42:46.175585,3,-3,1,6,-1,-6,-1,3
16:42:46.175585,-6,0,0,0,-7,-9,-2,1
16:42:46.197572,-4,1,0,41,71,6,-1,-3
16:42:46.198571,-2,-3,-2,-19,-12,5,2,-1
16:42:46.213562,-1,-3,-4,3,10,5,0,0
16:42:46.220558,10,-5,1,-10,-33,-9,-5,9
16:42:46.235548,-3,-2,-4,-1,2,-1,-1,-1
16:42:46.236547,-2,-3,2,-3,0,2,-1,-2
16:42:46.258533,0,0,1,2,-2,-2,1,0
16:42:46.265530,-3,0,-2,1,-17,0,0,0
16:42:46.280520,-13,-5,3,8,11,-5,-7,-7
16:42:46.281520,-1,-2,-3,-4,6,2,-1,0
16:42:46.295511,-3,-2,0,-4,3,-4,-3,1
16:42:46.295511,0,1,0,-11,-128,-12,-1,-1
16:42:46.317498,-6,-8,-3,15,35,-1,-6,-6
16:42:46.318497,-2,-3,-3,-6,-5,0,-1,0
16:42:46.340483,1,-1,0,0,36,-3,-3,-3
16:42:46.341482,-3,0,-1,-3,6,-1,0,0
16:42:46.355475,-1,-1,-2,-3,1,3,2,-4
16:42:46.356473,-4,1,1,3,3,-4,-2,-2
16:42:46.378459,2,0,-6,21,24,-6,-1,-2
16:42:46.378459,-10,-4,-7,-23,-25,1,-2,-3
16:42:46.400446,-1,-1,0,-6,11,-2,0,-3
16:42:46.401445,0,2,1,4,-30,0,0,3
16:42:46.415437,0,1,0,-5,7,6,2,0
16:42:46.416439,-5,0,1,-1,1,0,0,-4
16:42:46.438422,0,0,-6,-7,-11,3,1,2
16:42:46.438422,2,0,2,9,11,4,3,0
16:42:46.460408,2,3,0,12,25,-5,-3,0
16:42:46.461409,-8,-4,-2,-6,-38,-6,-6,-5
16:42:46.475399,5,-2,-4,2,7,2,-1,5
16:42:46.476400,0,-3,1,-6,-8,3,-1,-3
16:42:46.500384,-1,-1,-1,-6,39,5,2,0
16:42:46.500384,-6,-4,-2,-3,6,-5,-4,-3
16:42:46.520372,-7,-3,-1,-19,-25,-8,-3,-6
16:42:46.521373,-5,-3,-3,10,12,-1,-4,-5
16:42:46.535361,3,4,0,-2,-3,-1,-1,0
16:42:46.550354,0,-1,-1,-9,-65,-4,4,0
16:42:46.557348,-7,-8,-3,5,22,3,-2,-2
16:42:46.558348,-1,3,-1,-20,16,1,3,3
16:42:46.587330,-4,-1,-1,-3,13,-4,0,-4
16:42:46.588329,2,0,-1,2,-4,-2,1,-2
16:42:46.595324,1,-1,-3,-4,-7,-7,-1,0
16:42:46.610315,8,3,2,0,-2,-5,1,2
16:42:46.618310,-4,-1,-3,-3,-36,-6,-1,4
16:42:46.618310,-1,3,-1,-31,-52,2,-2,0
16:42:46.640297,-3,-3,-1,16,23,0,-2,-4
16:42:46.641296,3,5,2,-6,-11,-3,0,2
16:42:46.655287,3,1,-1,5,3,-3,-1,3
16:42:46.663283,1,1,0,5,0,-1,-5,-2
16:42:46.678274,-4,-3,2,4,15,8,2,-1
16:42:46.678274,-5,-5,-8,-8,-1,-1,-2,0
16:42:46.700260,-1,-2,-3,-7,-9,3,1,0
16:42:46.701260,1,-1,1,5,12,3,2,0
16:42:46.715251,-3,2,0,-30,-98,-5,-1,0
16:42:46.723246,-4,-1,2,13,32,6,2,-2
16:42:46.738236,-3,-2,-3,-1,-1,-2,0,-2
16:42:46.738236,-1,1,-1,-2,-6,1,-2,1
16:42:46.760223,1,1,-1,37,-26,1,4,1
16:42:46.761223,3,0,-4,-2,-6,-6,-3,-1
16:42:46.775213,-1,-2,-3,-6,-8,0,0,2
16:42:46.783208,-1,0,2,1,5,-2,2,1
16:42:46.798199,-1,2,0,-28,-52,-1,0,0
16:42:46.798199,0,-1,0,11,5,-5,-2,-2
16:42:46.820185,-2,-1,1,-1,2,-1,-3,-3
16:42:46.821185,0,0,0,1,-1,3,5,5
16:42:46.835176,1,0,0,1,-3,-1,-1,4
16:42:46.843173,2,-1,0,35,-5,-6,-2,2
16:42:46.873152,-2,-1,-3,7,17,-3,-2,-2
16:42:46.873152,-7,-3,-1,-8,-17,-4,-1,-3
16:42:46.880148,1,1,2,-4,49,7,1,1
16:42:46.881148,-3,-3,0,10,31,0,0,1
16:42:46.895139,-4,1,0,-3,-9,-7,1,-2
16:42:46.903133,1,-5,1,1,-1,-1,1,0
16:42:46.918127,-1,-2,-1,-1,-2,2,2,-2
16:42:46.918127,-1,-1,-1,-3,-12,-6,-5,-3
16:42:46.940111,0,-1,1,-1,0,0,-1,-2
16:42:46.941111,-3,-2,-1,36,7,-2,0,1
16:42:46.955101,0,1,0,4,-7,0,2,1
16:42:46.963096,-5,-2,0,-12,-42,-2,-1,-4
16:42:46.978088,-2,-2,-1,3,16,4,1,-1
16:42:46.978088,-6,-1,-1,-2,5,6,1,0
16:42:47.001073,1,1,2,2,-2,3,1,2
16:42:47.001073,-3,2,-1,-3,-4,0,-1,-1
16:42:47.015065,-2,3,0,1,8,-2,-1,-4
16:42:47.023060,2,2,-2,-13,1,-2,0,2
16:42:47.038050,0,3,1,-13,-40,-8,-2,-2
16:42:47.038050,-5,-6,-6,-1,5,-13,-8,-10
16:42:47.061041,1,1,0,-4,-3,-2,3,3
16:42:47.061041,0,0,-1,-2,-4,0,-2,0
16:42:47.083023,-2,0,-1,-1,-6,-6,-2,-2
16:42:47.084023,0,-1,-3,-3,-2,-3,0,-2
16:42:47.098013,-6,-1,1,-1,-5,-2,2,3
16:42:47.099012,-2,-2,-2,-1,20,3,1,0
16:42:47.120999,0,-3,-1,1,2,-1,3,0
16:42:47.120999,-3,-4,-2,2,4,-1,-2,-3
16:42:47.135990,-1,-2,-1,2,-29,2,-1,-2
16:42:47.142985,-6,-3,-2,7,21,-1,-6,-1
16:42:47.157976,2,2,-1,-2,5,2,5,0
16:42:47.158975,-1,1,-2,-3,-7,-3,-1,-3
16:42:47.180965,-2,0,-3,3,0,-1,-1,1
16:42:47.180965,-2,1,-3,-4,-4,-3,-3,-3
16:42:47.202948,3,3,0,3,1,3,-1,2
16:42:47.203949,-6,-5,-2,0,-4,-2,1,-3
16:42:47.217939,0,1,-3,8,17,0,0,-1
16:42:47.218950,-4,-4,-3,11,62,3,-2,-1
16:42:47.240925,0,1,-1,-1,3,-5,0,-2
16:42:47.240925,-5,-4,0,-3,14,1,-3,-1
16:42:47.262911,-5,3,3,-4,-3,1,2,3
16:42:47.263911,1,-4,-1,3,-1,3,0,-1
16:42:47.281900,1,-1,1,-4,-25,-2,-2,0
16:42:47.281900,-5,-2,-5,-5,-2,-6,-6,-3
16:42:47.305886,1,2,-2,2,7,-1,-2,0
16:42:47.306884,0,2,0,1,-7,-4,0,-1
16:42:47.332868,-4,3,1,-3,-2,5,1,-1
16:42:47.333868,-5,-4,-1,-12,-32,-2,2,-4
16:42:47.349857,-1,-2,-1,1,6,-2,0,-1
16:42:47.349857,8,1,-2,-1,-6,-2,-4,0
16:42:47.374842,3,-1,1,5,-4,-3,3,0
16:42:47.374842,-1,-2,-2,32,12,2,1,-1
16:42:47.387835,-3,-4,-2,-8,-2,1,-1,-1
16:42:47.387835,-5,-2,-1,-5,9,3,-1,-3
16:42:47.398828,0,-2,-3,3,10,1,0,-2
16:42:47.399827,-6,-3,-2,17,58,2,-2,-1
16:42:47.420814,-2,1,1,3,16,1,1,-2
16:42:47.421814,1,1,0,0,6,5,0,-3
16:42:47.458790,0,-4,-4,0,9,1,1,2
16:42:47.461788,-1,0,-1,-2,-5,0,1,1
16:42:47.462788,0,2,-2,-7,-1,2,1,3
16:42:47.465786,0,-2,0,-19,-30,-3,1,3
16:42:47.481776,0,0,0,-4,-15,-4,2,2
16:42:47.481776,-3,-5,-1,4,-21,3,-1,-2
16:42:47.502762,-4,-1,-1,8,27,-3,-5,-6
16:42:47.503762,3,3,0,-3,4,-5,-2,0
16:42:47.517752,3,3,-1,4,11,4,-3,5
16:42:47.525748,-3,3,3,13,4,-2,3,4
16:42:47.540739,-2,-2,-2,-1,5,3,-1,-1
16:42:47.540739,-7,-4,-2,7,1,1,0,2
16:42:47.562724,-3,-5,2,1,7,-1,-1,-1
16:42:47.563725,0,-1,-1,2,10,7,1,1
16:42:47.577716,1,-3,-4,-12,-17,-1,-1,2
16:42:47.585710,1,-1,-1,1,13,2,-2,0
16:42:47.600702,2,3,0,2,5,-3,1,1
16:42:47.600702,-4,-4,-1,-12,-2,4,2,2
16:42:47.622690,0,0,1,3,-30,-9,1,-2
16:42:47.623687,-5,-1,-1,0,11,6,-1,1
16:42:47.637681,1,0,0,-39,-27,7,-4,-4
16:42:47.645674,0,2,-2,7,12,-1,0,1
16:42:47.660665,0,0,0,2,3,-1,-1,1
16:42:47.660665,2,0,-2,-2,-6,-7,-4,-4
16:42:47.682655,-2,-4,-5,-12,-26,-3,-1,1
16:42:47.683651,5,-3,1,4,12,1,3,2
16:42:47.697644,0,-2,-1,0,-7,-11,-1,-2
16:42:47.705637,-1,0,-2,7,7,-2,1,2
16:42:47.720628,-3,-3,-2,-4,1,-2,-1,-3
16:42:47.720628,-3,2,-2,-1,-1,4,0,-3
16:42:47.742618,1,-2,0,-5,30,0,-2,2
16:42:47.743613,3,-4,0,-16,-59,-1,-3,4
16:42:47.758605,-3,-3,-4,1,17,2,0,0
16:42:47.765600,-2,0,0,1,2,0,-2,2
16:42:47.787589,6,-3,0,-3,-6,-4,2,1
16:42:47.788585,2,2,2,1,4,4,6,0
16:42:47.802580,-5,-4,1,2,5,-3,0,0
16:42:47.803584,-4,-2,-1,-4,-5,2,1,4
16:42:47.818585,-3,-1,-1,8,-10,-3,0,1
16:42:47.825562,0,-1,-2,2,1,-4,-2,-1
16:42:47.840553,-2,1,1,-2,3,-2,-2,-2
16:42:47.841552,-3,-2,-3,10,-22,-7,-4,-1
16:42:47.862598,0,0,0,6,18,-10,-5,-6
16:42:47.863539,0,-1,-1,-2,7,4,1,2
16:42:47.877541,-1,1,1,1,1,-1,-3,0
16:42:47.885534,-6,-2,-2,2,1,1,0,0
16:42:47.900516,3,4,4,2,1,-1,-2,1
16:42:47.900516,0,0,-3,10,2,0,1,1
16:42:47.922506,12,3,-2,-2,-1,3,0,0
16:42:47.923503,-4,-2,0,-5,-4,-4,-1,-3
16:42:47.937494,-1,2,0,-54,-51,1,0,1
16:42:47.945495,-1,-3,-1,8,22,0,-3,0
16:42:47.961478,-2,0,-4,-3,-10,-1,-1,-4
16:42:47.961478,-4,-4,-6,-5,-4,-8,-2,-2
16:42:47.983468,-4,1,-2,-2,2,2,-4,-4
16:42:47.984467,0,0,-4,-21,13,1,0,1
16:42:47.998458,-1,3,3,13,19,-2,-3,-3
16:42:48.006451,-6,-1,-3,-5,-3,0,-4,-2
16:42:48.020442,-4,-3,0,-3,-7,-2,0,-3
16:42:48.021441,-3,-1,-2,-1,-4,3,0,-6
16:42:48.043427,-6,-1,1,6,6,4,3,-3
16:42:48.043427,-1,-1,-2,7,2,1,0,1
16:42:48.065414,0,1,-3,-4,-8,4,0,0
16:42:48.066412,0,0,4,8,-29,-2,-1,-3
16:42:48.080404,3,3,-2,-10,-3,2,-5,0
16:42:48.081405,1,-1,-1,16,13,0,1,-1
16:42:48.102390,-1,0,0,16,28,5,-2,-4
16:42:48.103390,-4,-1,3,-9,-8,-6,-1,3
16:42:48.125377,4,1,-2,1,6,-7,-7,-3
16:42:48.126377,-1,0,-2,-1,-2,-3,0,1
16:42:48.140409,0,-3,0,2,-3,-3,0,-1
16:42:48.141366,-5,-3,-3,-29,-5,2,1,-2
16:42:48.163352,-1,1,-2,-9,11,0,0,-3
16:42:48.163352,-3,-2,0,1,20,1,-3,-4
16:42:48.186339,-4,6,0,-3,0,-5,0,1
16:42:48.186339,-2,3,-2,-6,-10,-2,1,-1
16:42:48.203331,-2,-3,1,-5,-14,-2,2,1
16:42:48.203331,-5,-4,-3,-14,-30,-3,0,-1
16:42:48.223319,4,2,-1,7,8,4,-1,3
16:42:48.224315,-1,0,-3,-2,-4,0,2,-2
16:42:48.246303,2,-3,1,-32,-16,-6,-3,-2
16:42:48.246303,0,1,3,-3,2,1,0,1
16:42:48.261295,-5,0,-1,3,7,-1,-2,-2
16:42:48.261295,-4,-1,-1,-32,-60,-8,-3,-4
16:42:48.283281,-1,-4,-4,9,14,-1,-5,-6
16:42:48.284281,-2,-3,-1,-2,-4,-4,-4,-3
16:42:48.306266,1,1,-4,3,10,-1,2,2
16:42:48.306266,-3,-3,-1,-6,-4,1,0,-2
16:42:48.321256,0,0,0,-1,-12,-1,0,-3
16:42:48.321256,-1,-3,0,1,6,3,5,4
16:42:48.351239,-3,-2,0,29,-24,-1,0,-2
16:42:48.351239,-1,-2,-2,36,35,5,-2,-1
16:42:48.366231,-4,-3,-2,-13,-4,-11,-2,-2
16:42:48.366231,2,-4,1,3,7,0,1,0
16:42:48.381218,-3,-2,-1,-1,-8,-2,-2,-1
16:42:48.381218,3,1,2,1,5,0,0,0
16:42:48.403207,-4,-1,-1,-3,-1,1,-2,0
16:42:48.404206,-8,-3,-2,0,1,-1,0,-1
16:42:48.426191,-1,-2,-1,-2,-2,0,-2,0
16:42:48.426191,-3,-1,1,12,33,-1,-3,-2
16:42:48.441180,3,3,3,11,7,3,0,7
16:42:48.442182,-2,-1,-2,0,-35,0,0,-1
16:42:48.463169,-1,-3,-2,-8,2,5,2,-6
16:42:48.478161,-1,0,-3,-1,-1,1,-1,-1
16:42:48.486156,2,0,1,-3,-3,5,-1,0
16:42:48.486156,6,0,0,5,1,1,-1,0
16:42:48.501144,-1,3,-1,1,-4,1,4,1
16:42:48.501144,5,2,3,8,25,3,2,2
16:42:48.523133,-6,-2,-1,9,-8,2,0,-3
16:42:48.524130,-4,-3,-1,-14,5,5,-2,-3
16:42:48.546116,2,-1,1,3,1,-4,-1,-2
16:42:48.546116,1,0,-1,-4,2,-1,-2,-1
16:42:48.561106,0,0,-1,-6,-4,-6,0,0
16:42:48.561106,-1,0,1,2,-1,3,-1,-1
16:42:48.583095,1,-3,1,0,-2,-1,-4,1
16:42:48.584093,-1,1,-1,3,5,1,1,1
16:42:48.606079,-3,-3,1,-9,-15,2,0,-4
16:42:48.606079,0,-2,1,12,6,-6,1,2
16:42:48.621069,-3,-2,-3,18,10,-3,1,1
16:42:48.621069,-1,-6,-2,-4,-3,-1,2,0
16:42:48.643058,-2,1,0,-4,-2,-4,-1,-3
16:42:48.644058,-6,-4,-1,1,12,-2,-2,-2
16:42:48.666043,-2,1,0,-4,-2,3,-2,0
16:42:48.667045,-2,-1,-3,-27,-59,1,1,-1
16:42:48.681035,0,-1,0,5,5,-3,1,-2
16:42:48.682033,-3,-3,-1,-3,2,-2,-3,0
16:42:48.703020,-5,-3,-2,-6,-7,-2,-4,-2
16:42:48.711016,-5,-2,-3,-4,-5,-2,-1,-2
16:42:48.726007,-6,-4,-5,-4,-5,1,-3,-2
16:42:48.727004,-4,-5,-2,-2,7,-4,-1,0
16:42:48.740995,-6,-4,-2,7,9,5,0,-3
16:42:48.742001,1,1,-1,-1,-2,2,-3,-1
16:42:48.763980,-3,0,1,-9,-35,-1,1,0
16:42:48.763980,-4,-1,0,6,8,0,-2,-4
16:42:48.785970,-1,-2,-1,-1,-3,-6,-4,-2
16:42:48.786971,0,-2,0,-3,-13,-5,1,-3
16:42:48.800960,-2,-2,-1,14,10,3,-3,1
16:42:48.807953,0,-2,-2,-3,-21,-11,-4,0
16:42:48.823943,-4,-3,-4,-3,1,2,0,0
16:42:48.823943,0,-1,-2,7,20,-1,1,-4
16:42:48.845930,1,-1,2,-16,-21,0,0,-2
16:42:48.845930,-4,-6,-4,5,10,-1,1,-4
16:42:48.860923,3,1,-1,-3,0,-7,-1,-1
16:42:48.868918,4,-2,-3,1,-12,-7,-1,-1
16:42:48.883906,-4,-3,1,-1,-18,1,3,-1
16:42:48.883906,-3,-1,-1,-6,2,-4,-3,-2
16:42:48.905896,0,0,0,3,8,-3,-3,-2
16:42:48.906895,-3,0,-1,-17,-32,-12,-1,-3
16:42:48.927882,-1,0,2,8,-1,0,2,2
16:42:48.928881,4,-3,-4,0,18,-2,-1,0
16:42:48.943869,-7,-5,-5,-2,-5,1,1,-2
16:42:48.943869,2,1,-4,-4,-15,-6,0,2
16:42:48.965857,1,0,0,8,13,-1,-2,1
16:42:48.966855,0,-3,-2,-10,-6,-9,-2,1
16:42:48.988843,-1,0,3,-4,5,4,-1,-1
16:42:48.988843,-3,-2,-5,0,-9,-8,-3,-1
16:42:49.003832,-3,-1,0,3,6,4,-1,0
16:42:49.003832,-3,-2,-2,0,2,-1,1,-3
16:42:49.025819,-1,0,0,-7,-7,-1,-2,1
16:42:49.026819,-5,-2,0,-2,-2,-2,-6,-4
16:42:49.048805,-4,-5,-3,-1,9,2,-3,-1
16:42:49.048805,0,1,3,5,5,-2,-1,-1
16:42:49.063795,-2,0,1,24,34,1,2,4
16:42:49.063795,-1,-2,-3,-10,0,4,-2,-4
16:42:49.085784,3,-2,0,-1,4,1,0,1
16:42:49.085784,0,-2,0,4,-1,0,-2,0
16:42:49.108767,0,0,1,-22,-26,-8,-3,0
16:42:49.108767,-2,-1,0,2,20,1,0,-5
16:42:49.123758,-1,-1,2,-2,-8,-4,0,0
16:42:49.123758,-12,-4,-4,-2,0,-3,-4,-4
16:42:49.145747,-3,1,0,-5,-7,-1,-2,1
16:42:49.146745,5,2,1,-9,-13,-2,-1,3
16:42:49.168732,0,1,-2,-1,-21,0,0,-1
16:42:49.169732,2,-3,-3,-3,-1,6,0,-2
16:42:49.183723,0,1,2,3,7,-4,-2,-1
16:42:49.183723,2,0,-2,-3,-8,3,-1,-2
16:42:49.205707,2,-3,0,23,9,3,2,3
16:42:49.206706,-3,-4,-3,-3,-5,-3,-5,-6
16:42:49.228693,4,0,0,-16,-18,-2,4,2
16:42:49.229692,6,1,1,4,7,-1,-3,3
16:42:49.243685,5,1,0,-17,-36,-1,0,-2
16:42:49.243685,0,4,-2,-4,18,0,-3,-4
16:42:49.265672,0,-3,0,-3,13,2,0,1
16:42:49.266672,0,0,-2,-6,6,0,1,1
16:42:49.288655,-3,-5,-1,-3,-4,-4,-2,-3
16:42:49.288655,1,-3,0,22,-10,0,1,-4
16:42:49.303647,0,-1,0,-1,2,3,-3,0
16:42:49.303647,-1,2,3,22,39,1,-1,1
16:42:49.325635,-1,-1,0,-3,4,-1,-1,-1
16:42:49.326635,1,-2,0,9,7,1,2,-1
16:42:49.348618,0,0,-2,0,-29,-5,1,3
16:42:49.349619,1,0,-1,-1,14,0,-3,-4
16:42:49.363609,-2,-3,1,-1,-8,-6,1,-1
16:42:49.363609,-4,-4,-6,39,23,0,0,1
16:42:49.385598,1,-3,-4,-7,-7,-1,-6,-3
16:42:49.386595,-6,-1,-6,-1,-1,-3,-3,-4
16:42:49.408584,-3,-2,0,-10,-22,-1,0,-5
16:42:49.408584,5,0,-1,-1,-3,-4,-1,0
16:42:49.423571,-3,0,-1,9,9,-9,0,0
16:42:49.423571,-2,-1,-1,1,11,-1,0,2
16:42:49.445561,1,1,-2,-3,2,-4,-3,-4
16:42:49.446558,0,-1,-1,-22,-31,2,3,3
16:42:49.468546,-2,3,-4,-27,3,-2,-4,-5
16:42:49.469543,-7,-8,-6,0,3,-1,-6,-5
16:42:49.483537,-4,-2,-4,-5,-9,-3,0,0
16:42:49.483537,1,-3,-3,-13,10,-1,-2,0
16:42:49.506520,-4,1,-2,0,6,0,-3,-2
16:42:49.513516,0,0,-3,18,5,-2,2,1
16:42:49.528509,-2,-1,-2,-4,3,1,0,2
16:42:49.529508,0,0,-2,-5,4,-3,-2,0
16:42:49.543500,1,1,-1,-19,-18,-1,0,-2
16:42:49.543500,-2,-2,-4,3,10,0,-1,1
16:42:49.566484,-3,1,-2,-4,-11,-1,0,-2
16:42:49.573479,0,1,-3,5,-31,-4,1,1
16:42:49.588470,0,-1,-2,2,16,1,-2,1
16:42:49.589470,2,1,0,-2,9,-1,-3,-4
16:42:49.618454,8,4,-1,7,0,1,2,-1
16:42:49.619455,-1,-1,-3,-3,6,1,-3,0
16:42:49.625449,-1,-3,-2,10,14,5,3,0
16:42:49.626449,-1,-1,-2,-5,-9,-4,-4,0
16:42:49.648432,-3,0,-4,3,-22,2,-3,-1
16:42:49.649432,0,3,1,-6,-14,1,0,1
16:42:49.663425,-1,-5,0,0,7,0,-1,-3
16:42:49.663425,-4,2,1,22,1,-3,-2,-1
16:42:49.685412,-2,-1,-1,-20,-44,-3,-2,0
16:42:49.686412,0,-2,2,7,13,4,-1,0
16:42:49.708398,0,-9,0,-6,-14,-3,-1,-3
16:42:49.709397,-3,-1,-2,-13,-30,-3,-1,1
16:42:49.723386,0,-4,-2,1,5,-1,1,1
16:42:49.723386,3,0,0,3,5,5,0,1
16:42:49.746372,-2,0,-4,12,21,-4,-2,-1
16:42:49.746372,0,0,-1,-7,-13,4,-1,0
16:42:49.768358,1,1,2,5,4,5,-2,-1
16:42:49.769358,-2,-1,-1,-9,11,2,-1,-3
16:42:49.783351,-1,-1,1,-1,0,-2,-1,-4
16:42:49.791347,1,0,-4,-21,-6,0,0,0
16:42:49.805336,-2,5,-1,-2,-3,-5,-1,0
16:42:49.806335,-2,-4,-1,-1,6,-2,1,-3
16:42:49.828323,14,6,3,-1,-3,-1,-4,0
16:42:49.829322,-2,0,2,1,0,0,0,0
16:42:49.851306,1,-1,1,10,14,-3,-1,-4
16:42:49.851306,0,5,-1,-10,-50,-14,-5,-2
16:42:49.866298,3,2,-1,-9,10,1,-2,0
16:42:49.866298,-2,3,-2,11,6,-2,-2,-3
16:42:49.888286,1,-3,-1,-18,-8,1,1,0
16:42:49.889285,2,-1,-3,23,-3,1,2,0
16:42:49.911269,0,0,-1,-5,1,2,-1,-2
16:42:49.911269,1,2,-3,-3,-7,1,1,1
16:42:49.926260,-4,0,-2,-9,-8,-1,2,-4
16:42:49.926260,-4,1,1,-13,-32,-2,-2,-1
16:42:49.948246,1,1,0,3,8,0,-3,-3
16:42:49.949250,-3,0,-1,8,7,-2,0,-2
16:42:49.971232,-3,-1,0,-6,0,8,1,-1
16:42:49.971232,4,2,1,-6,-10,-5,-3,0
16:42:49.986223,-2,-1,-1,-1,2,-2,-1,-2
16:42:49.986223,0,-3,-1,-3,0,0,-1,0
16:42:50.008212,0,0,-4,-2,-4,-5,-1,2
16:42:50.009209,-3,1,-2,-23,3,1,1,-2
16:42:50.031196,1,0,0,-19,-33,-2,1,-1
16:42:50.031196,-5,-2,0,2,12,0,-4,-4
16:42:50.046187,12,-2,-3,-1,9,3,-1,2
16:42:50.046187,-2,0,-1,-2,2,-2,0,0
16:42:50.068175,-1,-2,-3,8,-18,-6,0,2
16:42:50.069174,1,1,-1,4,4,-7,-5,-3
16:42:50.091157,-2,0,2,-5,0,1,-1,-1
16:42:50.092158,-1,-1,-4,-4,6,-2,1,-5
16:42:50.106148,-1,2,3,0,4,-2,-3,0
16:42:50.106148,1,-2,0,-12,-22,-2,-4,0
16:42:50.128137,-2,-3,-1,-3,6,-4,-6,-2
16:42:50.129137,-3,1,-3,1,-2,1,-3,-4
16:42:50.151123,-4,-2,-1,-23,-33,1,-2,0
16:42:50.152122,-6,-1,-3,3,8,1,2,3
16:42:50.166111,-2,-5,2,-1,-5,0,-1,-1
16:42:50.166111,-3,-2,-1,1,2,-4,-1,-1
16:42:50.188100,-4,-1,0,-3,-4,-3,-2,0
16:42:50.189100,0,0,2,-1,-2,-1,-1,0
16:42:50.211083,-2,0,0,9,3,2,0,-1
16:42:50.211083,-1,-3,1,-5,-1,0,-1,-1
16:42:50.226074,-1,-4,-4,3,6,2,-1,-3
16:42:50.226074,1,-1,-2,-8,-8,-2,-1,1
16:42:50.248062,-1,-5,-1,4,5,-3,-3,-4
16:42:50.249060,-2,-3,-3,-7,-5,-1,1,-2
16:42:50.271048,2,-4,1,-3,1,-2,-2,-3
16:42:50.271048,0,4,0,-2,-1,2,-1,2
16:42:50.286036,-4,-5,-2,-2,32,-2,-1,-1
16:42:50.286036,-1,-2,0,1,16,-1,-3,-4
16:42:50.308026,-3,1,3,3,19,0,0,1
16:42:50.309022,-2,-3,-3,-16,-34,-5,0,-3
16:42:50.331009,-1,-4,-2,5,5,4,1,-2
16:42:50.332009,-1,-2,-1,-2,-5,0,0,0
16:42:50.346003,1,-2,3,2,2,-5,1,-1
16:42:50.353996,-3,1,-1,-2,-3,3,3,0
16:42:50.368985,-1,4,1,-3,3,1,4,2
16:42:50.368985,-6,-4,-3,-29,-14,-4,-3,-1
16:42:50.390973,-4,-3,-1,-13,8,0,-3,-2
16:42:50.391971,-1,3,2,-27,-104,-10,-4,-2
16:42:50.405963,-1,0,0,7,41,4,2,-4
16:42:50.413958,0,-3,-1,-3,1,-2,2,-3
16:42:50.427949,0,1,0,0,0,-2,0,4
16:42:50.428948,1,-1,0,-2,-11,0,-1,0
16:42:50.450934,0,-3,0,4,10,4,-4,1
16:42:50.450934,-2,1,-1,-4,-4,0,-2,-3
16:42:50.465925,-2,-1,-2,-2,-8,-4,-1,-2
16:42:50.480917,-2,1,-2,1,1,-1,-1,1
16:42:50.487912,12,3,-3,-12,2,2,1,2
16:42:50.488911,-2,2,-2,-29,-21,-2,-3,-1
16:42:50.510897,-3,-3,-3,-2,9,-5,-3,-3
16:42:50.510897,1,-2,-1,-4,-21,-4,1,1
16:42:50.525891,-1,1,2,1,14,0,-3,-2
16:42:50.533886,1,0,-1,1,2,0,-1,-4
16:42:50.547874,-2,0,-1,-10,-8,-1,1,0
16:42:50.548875,-4,-1,0,9,6,-1,0,-3
16:42:50.570859,1,-4,-3,3,-24,-4,-3,0
16:42:50.570859,-1,-1,1,2,5,1,0,-1
16:42:50.585850,-3,-3,-4,0,6,1,0,1
16:42:50.600841,-5,1,2,12,22,-12,-5,-4
16:42:50.607836,-1,2,-5,-7,-5,4,0,-1
16:42:50.608837,2,-2,-2,-3,5,-1,0,1
16:42:50.630824,1,-3,-2,12,24,1,-2,2
16:42:50.630824,1,-2,2,15,16,-2,-2,-3
16:42:50.647814,0,0,-1,-3,12,-1,-1,-2
16:42:50.653810,0,-1,0,-7,-4,-4,1,1
16:42:50.667799,0,1,-1,2,-4,1,1,0
16:42:50.675794,-2,-5,-2,1,7,-1,-3,-1
16:42:50.690786,5,2,-1,14,-3,-5,2,3
16:42:50.690786,-6,-3,-3,-3,-2,0,-1,-5
16:42:50.705776,3,1,-1,11,-14,-4,-2,0
16:42:50.713772,-1,-2,0,-1,13,1,0,-4
16:42:50.727763,-7,-6,-4,-4,4,-5,-2,-5
16:42:50.728762,-1,-3,-2,0,6,-1,0,1
16:42:50.750748,0,1,-3,0,5,-2,0,-1
16:42:50.750748,-6,-2,-5,-4,-7,1,1,-2
16:42:50.765739,1,3,0,1,5,3,-2,1
16:42:50.772735,-1,-2,1,28,8,0,-2,2
16:42:50.787725,-4,0,-5,-5,0,1,1,2
16:42:50.788725,-1,-1,2,-24,-37,-4,1,4
16:42:50.810711,1,0,0,3,1,0,1,1
16:42:50.810711,1,0,3,0,-9,1,2,-1
16:42:50.825702,-6,3,0,0,3,-1,0,-5
16:42:50.833697,-1,-1,1,-1,-8,0,0,0
16:42:50.848687,-2,3,-1,-2,-4,-5,-3,-2
16:42:50.848687,0,0,-1,1,-8,-1,1,0
16:42:50.878676,-3,1,-1,-3,-8,1,0,0
16:42:50.879671,0,-3,0,0,1,-1,-3,2
