timestamp,emg1,emg2,emg3,emg4,emg5,emg6,emg7,emg8
18:53:14.911639,2,0,-2,1,1,4,2,2
18:53:14.911639,2,2,1,-2,-2,-1,2,-2
18:53:14.922627,-2,-1,-2,0,2,-3,-5,-2
18:53:14.923627,-4,0,-2,-4,-1,-3,1,1
18:53:14.944609,1,1,1,3,-1,-1,-3,-3
18:53:14.945609,0,5,0,-3,6,2,2,2
18:53:14.967595,-1,-1,-2,-2,-2,2,-4,-1
18:53:14.967595,1,-1,3,-3,-1,-1,0,1
18:53:14.982587,0,1,0,-1,0,-2,1,2
18:53:14.982587,-2,-2,1,-4,2,0,-2,-1
18:53:15.004572,0,2,1,-3,-2,0,3,5
18:53:15.005573,-5,-4,1,-1,0,-3,-2,-5
18:53:15.027558,2,1,-3,-4,-2,-5,-6,-3
18:53:15.027558,0,-3,-4,-3,-2,0,-2,-1
18:53:15.042548,-1,-1,0,-1,-1,-1,-4,-6
18:53:15.042548,-4,0,-3,1,0,-2,-2,-2
18:53:15.072530,-3,0,-3,0,0,0,0,-2
18:53:15.072530,0,-3,0,8,-5,-2,0,-1
18:53:15.087531,-5,1,0,-5,-4,1,-2,-2
18:53:15.087531,-3,-5,-1,-3,-4,-1,1,-2
18:53:15.102513,-2,2,0,-1,-3,0,-1,0
18:53:15.102513,-2,-1,-1,-3,-2,0,-4,-3
18:53:15.124497,-2,-1,-2,-2,0,0,0,-3
18:53:15.125502,1,-1,0,3,7,-1,-1,-2
18:53:15.147485,-2,2,0,-2,-3,3,10,9
18:53:15.147485,-2,-3,-4,-1,-2,-2,0,-2
18:53:15.162477,-2,-1,-1,-2,-6,0,1,-2
18:53:15.170470,0,-1,0,-2,-4,-4,-3,-2
18:53:15.185463,1,-2,-1,-3,-2,-4,-1,0
18:53:15.185463,6,2,-2,1,-4,0,0,1
18:53:15.207450,1,0,2,0,-1,1,-1,0
18:53:15.208449,-1,-1,-2,-3,-4,-6,-3,-1
18:53:15.222440,0,-1,-2,1,6,5,4,3
18:53:15.230435,1,-1,-3,-1,-2,-3,2,-1
18:53:15.245423,-1,-2,0,1,-2,0,-2,-1
18:53:15.245423,0,-2,-1,-12,-6,0,7,4
18:53:15.267413,-3,0,0,4,3,-1,0,-3
18:53:15.268410,-2,1,0,-3,-2,1,4,2
18:53:15.282403,2,0,-4,-4,-2,0,1,0
18:53:15.290395,-1,1,1,-4,1,0,-1,1
18:53:15.305389,-5,-1,-3,-5,-2,0,-1,2
18:53:15.305389,1,-1,-1,0,1,-4,0,-2
18:53:15.327375,3,4,-3,2,-3,-1,-1,-1
18:53:15.328373,-1,2,0,-3,0,0,0,-1
18:53:15.342366,1,-1,0,-1,-1,1,2,2
18:53:15.350358,1,-1,-1,4,3,2,2,4
18:53:15.365349,-5,-2,-2,0,2,3,-2,1
18:53:15.365349,0,1,-1,-3,-5,0,0,-1
18:53:15.387338,0,3,1,-2,-1,4,1,-2
18:53:15.388337,1,-3,-2,-1,-1,0,2,0
18:53:15.402328,2,0,-2,-1,-1,-2,5,9
18:53:15.410321,-1,1,0,1,-6,-4,1,0
18:53:15.425311,-2,-1,-4,-4,3,0,-3,-1
18:53:15.425311,-3,1,-4,-3,-3,-1,1,1
18:53:15.447298,0,0,0,-2,0,-2,2,2
18:53:15.448298,-3,-2,-1,-2,-5,5,2,3
18:53:15.463289,-3,-2,-1,1,0,-2,-1,-2
18:53:15.470287,1,0,-3,-2,1,1,-1,0
18:53:15.485274,1,1,1,4,1,-2,0,1
18:53:15.486276,-1,-2,0,-3,3,2,-2,-2
18:53:15.507264,-1,-1,-1,-4,-1,2,-1,-1
18:53:15.508262,-2,-3,1,1,-2,3,1,-3
18:53:15.530247,0,0,2,0,-2,1,-2,2
18:53:15.531248,0,-1,-4,-2,-5,1,-1,-1
18:53:15.545237,-4,-2,-1,-1,0,-3,-1,-4
18:53:15.545237,1,1,1,-3,4,0,2,3
18:53:15.567225,9,1,0,-1,2,-2,-3,0
18:53:15.568224,2,-1,1,2,1,2,-1,-6
18:53:15.598206,1,0,0,-3,-2,-3,1,2
18:53:15.598206,-1,-2,0,-4,-4,-1,1,1
18:53:15.605200,-1,1,-1,0,0,-1,-2,-6
18:53:15.605200,1,-4,0,1,0,0,-3,-3
18:53:15.627188,-1,-3,-3,-3,-6,-2,-1,-5
18:53:15.628189,-5,-1,-3,-2,-6,-4,0,-1
18:53:15.650174,1,4,1,1,2,-1,-4,1
18:53:15.651174,0,-2,-1,0,1,1,1,-3
18:53:15.665164,-4,-2,-4,-2,-5,-1,-3,-4
18:53:15.666163,-3,1,-3,-1,-2,-2,-4,0
18:53:15.687149,-2,-1,-1,-2,0,-1,0,0
18:53:15.688150,-3,-3,0,-2,-4,-1,-3,-7
18:53:15.710134,-1,4,-4,1,-3,-3,-3,-2
18:53:15.710134,-3,-1,0,-2,-1,0,0,-1
18:53:15.725128,-3,-1,1,0,0,1,-1,-3
18:53:15.725128,-3,0,-1,-2,0,0,0,-2
18:53:15.748112,-2,-2,-3,-1,-1,1,-2,0
18:53:15.749113,-3,0,-1,-2,0,0,-3,-3
18:53:15.770101,-1,-1,-1,1,0,-1,1,2
18:53:15.771097,-4,0,-1,-3,-2,-2,-3,-4
18:53:15.785091,4,-5,-3,0,0,-4,-5,-5
18:53:15.792084,-4,0,-1,0,-1,0,-1,2
18:53:15.808074,-1,-2,-1,-1,-3,-3,-1,0
18:53:15.808074,-1,-1,-4,-1,-6,2,-2,-1
18:53:15.830060,-3,0,-2,-1,-1,-1,-1,0
18:53:15.831061,0,0,1,2,-1,-1,0,0
18:53:15.845051,-2,0,-3,-1,0,-1,0,-1
18:53:15.853049,0,-1,-3,2,-3,-2,0,-3
18:53:15.868040,-1,0,-3,-1,-5,-5,-2,0
18:53:15.868040,-2,2,0,-2,-6,0,0,-3
18:53:15.890027,-2,-2,1,0,0,-1,-4,-2
18:53:15.891025,-3,-4,-1,-3,-3,-1,-2,-1
18:53:15.905017,0,-1,-2,-5,-1,0,-2,-5
18:53:15.913010,-1,0,-1,-1,4,1,1,-3
18:53:15.928003,-1,-5,-3,-2,-4,-3,0,0
18:53:15.928003,2,3,0,-1,-4,-3,-1,2
18:53:15.949989,0,0,-1,2,4,0,3,-2
18:53:15.950990,0,1,-1,1,-1,-3,0,2
18:53:15.964977,3,1,0,1,-4,-2,1,1
18:53:15.972976,-1,1,-2,-2,-1,-3,-2,-4
18:53:15.987966,-2,-1,-1,0,-4,0,-4,-4
18:53:15.987966,-2,-2,-3,-1,-4,1,2,2
18:53:16.009952,-1,0,-1,3,2,-5,-1,-1
18:53:16.010949,4,2,-2,-3,1,1,0,-3
18:53:16.024940,0,-2,-4,-9,-2,2,1,1
18:53:16.032935,0,-3,4,2,6,-1,1,1
18:53:16.047926,3,1,-3,0,-2,-1,-4,-6
18:53:16.047926,0,1,-2,-4,-5,0,-1,-1
18:53:16.069915,-1,1,1,-1,-3,-2,-1,0
18:53:16.070911,-2,-1,2,1,-2,-2,0,0
18:53:16.084902,-2,1,-2,-1,-4,-1,0,-2
18:53:16.092898,0,-3,-3,0,0,-2,0,-2
18:53:16.107888,1,2,-2,-5,-5,-1,1,-3
18:53:16.107888,1,1,0,2,1,1,-1,3
18:53:16.130876,1,0,-1,0,3,-2,-1,-1
18:53:16.130876,-3,-2,-2,-3,-2,-1,-3,-2
18:53:16.144868,-4,-3,-1,0,1,2,-4,1
18:53:16.152863,-4,-4,2,-1,-4,-2,-2,-2
18:53:16.174847,-1,-1,-3,-3,-2,-5,-5,-6
18:53:16.175850,-1,-3,-1,2,0,0,1,-2
18:53:16.189840,2,-1,1,1,4,0,0,-1
18:53:16.190839,0,-1,0,1,0,-2,0,-3
18:53:16.204828,0,-2,-4,-1,-2,0,0,-7
18:53:16.212824,-2,-1,-4,-3,0,0,-2,-4
18:53:16.227814,2,-1,0,-4,-1,-3,-2,0
18:53:16.227814,-1,0,1,1,2,3,3,2
18:53:16.250801,0,1,-1,-5,-9,-2,-1,0
18:53:16.250801,-4,-1,0,3,4,-2,-1,1
18:53:16.264793,-2,2,-1,-2,-6,-3,-1,-2
18:53:16.272786,0,-2,-1,-1,-3,-3,-4,-2
18:53:16.287777,-3,-1,-3,-3,-4,0,0,0
18:53:16.287777,1,1,-1,1,3,1,0,0
18:53:16.309766,-3,0,-2,2,0,0,-2,-5
18:53:16.310765,-1,-1,0,0,-5,-3,1,-1
18:53:16.324756,1,0,1,-3,-1,0,1,5
18:53:16.332751,0,-3,-3,0,0,3,1,-1
18:53:16.347740,-1,-2,-3,0,2,3,1,0
18:53:16.347740,1,1,-1,-3,0,-1,0,-3
18:53:16.369728,0,-2,2,0,1,2,-3,-3
18:53:16.370725,-5,0,-2,-2,-2,0,0,0
18:53:16.384717,-3,-1,1,-2,-2,-4,-1,-1
18:53:16.392712,-1,0,0,1,-1,0,-1,-1
18:53:16.407702,-3,-2,-4,-4,-5,-1,1,-5
18:53:16.407702,8,3,0,-1,-9,-4,-1,4
18:53:16.429688,-3,-2,-4,-1,6,0,-2,-3
18:53:16.430689,0,-1,3,2,0,-2,0,2
18:53:16.452678,0,1,-3,-1,-4,-1,-1,0
18:53:16.453680,-2,0,-4,-2,-4,-1,-2,-1
18:53:16.467668,-2,-2,0,-1,2,3,-2,-1
18:53:16.467668,2,-3,0,1,-1,-3,-2,0
18:53:16.489653,-1,-1,-1,-1,-1,-1,-2,0
18:53:16.490654,3,0,0,0,3,-1,2,-2
18:53:16.512640,-1,-2,-3,-2,-4,1,0,1
18:53:16.513640,0,1,1,0,0,3,4,5
18:53:16.527633,-4,-2,1,1,-3,-3,-4,0
18:53:16.527633,-1,1,-1,-3,-3,2,0,-1
18:53:16.550615,3,-1,-1,3,-3,0,-4,0
18:53:16.550615,-4,-3,-3,1,4,1,-1,-2
18:53:16.572603,-1,-1,-2,9,2,-2,0,-3
18:53:16.573603,1,-2,1,1,4,-2,3,2
18:53:16.587594,-3,-1,-1,-2,-2,0,-4,-2
18:53:16.588592,-1,1,0,-2,-2,-1,2,-3
18:53:16.610578,-4,-2,1,2,-1,0,1,-2
18:53:16.610578,-2,-1,-1,1,0,-3,1,2
18:53:16.632566,-2,0,-2,-3,-2,-5,-5,-3
18:53:16.633563,-2,-2,0,1,3,-1,-2,1
18:53:16.647554,0,0,-1,-2,0,-3,-2,-3
18:53:16.648556,10,5,1,-2,-4,-1,1,0
18:53:16.670539,-1,-3,-1,-1,3,0,-4,-1
18:53:16.670539,2,0,1,2,-2,-5,1,2
18:53:16.692529,-2,0,-2,0,-2,-2,1,-2
18:53:16.693525,1,-4,0,2,4,0,0,-2
18:53:16.707519,-1,-3,-1,-2,-3,-1,-2,1
18:53:16.715515,2,2,-1,-3,-2,0,1,2
18:53:16.730502,0,-1,-3,-1,0,0,-4,-1
18:53:16.730502,0,2,-2,-1,-6,-1,1,-1
18:53:16.752492,1,-2,0,1,3,1,0,-2
18:53:16.753491,-4,-1,-3,-3,2,-1,1,-3
18:53:16.767482,2,-1,0,11,3,-5,-2,0
18:53:16.775477,-6,-3,-2,-6,-1,-3,0,-3
18:53:16.790465,-3,-3,0,-1,0,1,1,-1
18:53:16.790465,-1,0,-1,-3,-5,-4,-2,-1
18:53:16.812454,-1,-1,-1,-3,1,-2,2,-2
18:53:16.813451,2,-1,1,4,0,0,-3,1
18:53:16.827445,-6,-3,0,1,1,-2,0,1
18:53:16.835440,1,1,-1,-2,-4,-2,-2,-2
18:53:16.850427,0,0,-5,-4,0,2,-2,-1
18:53:16.850427,1,2,0,-4,-8,0,0,2
18:53:16.872414,-1,0,-2,1,2,-4,-2,-1
18:53:16.873416,-4,-2,-3,-1,-1,-1,-1,-2
18:53:16.887408,-3,1,-1,-3,-1,-2,-5,-4
18:53:16.895403,-2,-1,0,-3,-1,-4,-1,-1
18:53:16.910393,5,1,1,-2,1,-3,0,-1
18:53:16.910393,0,1,0,1,1,2,0,-1
18:53:16.932379,-3,-1,-2,0,-3,1,-2,-3
18:53:16.933379,2,2,-2,-2,-1,1,-1,0
18:53:16.947371,-3,-1,2,1,2,0,0,0
18:53:16.955366,0,0,0,-4,-3,-6,-1,-1
18:53:16.970354,0,2,-1,1,1,0,2,1
18:53:16.970354,0,-4,-4,-4,-7,-1,-2,0
18:53:16.992343,1,3,0,11,10,2,0,-2
18:53:16.993342,0,-2,-3,-1,2,-1,-3,2
18:53:17.008333,2,-1,1,0,-3,-2,-3,4
18:53:17.015328,-4,-2,-1,-1,-2,0,-3,-3
18:53:17.030316,3,0,1,-2,-4,-1,-3,-1
18:53:17.030316,-1,1,-1,1,1,1,-1,-2
18:53:17.052305,-1,1,-2,-3,-4,-3,-1,1
18:53:17.053306,-4,1,-2,0,7,1,0,-2
18:53:17.075289,-3,0,2,-1,-6,1,-3,-3
18:53:17.075289,1,2,-1,-1,-3,-4,-2,0
18:53:17.090279,-3,0,-3,-2,-1,-3,-1,3
18:53:17.090279,0,0,-1,0,0,0,1,-3
18:53:17.112268,3,1,1,-2,-3,-5,0,-4
18:53:17.113266,-1,1,-1,-3,0,-2,1,-4
18:53:17.127258,-2,0,0,0,0,-1,0,-1
18:53:17.135254,-2,0,1,0,0,0,1,0
18:53:17.150242,-3,-2,-1,-3,-4,2,3,0
18:53:17.151243,2,-1,0,10,1,1,1,-1
18:53:17.172231,-2,-1,0,-1,2,-4,-1,-3
18:53:17.173227,-1,2,0,-2,2,0,1,0
18:53:17.187218,-3,-1,-3,-3,3,0,2,-3
18:53:17.195217,-2,-3,-4,0,-1,0,1,0
18:53:17.210207,-3,-1,0,-1,0,-1,0,0
18:53:17.211207,-2,-1,-1,-3,-3,-2,0,-1
18:53:17.232194,2,0,0,3,3,2,-2,0
18:53:17.233193,-1,-1,0,-1,-1,0,1,1
18:53:17.247182,-1,0,-1,1,-4,-2,-4,0
18:53:17.255180,-2,1,3,-4,-5,-1,3,-1
18:53:17.277165,0,-1,-3,-1,-2,-2,-3,3
18:53:17.278165,0,-1,1,2,0,-1,0,3
18:53:17.292155,-2,-1,-1,1,-3,-1,-2,-3
18:53:17.293156,-1,0,2,-4,-5,0,1,-3
18:53:17.315143,-4,0,-2,-2,2,2,1,1
18:53:17.316142,3,1,0,1,-1,0,0,1
18:53:17.330130,4,-1,-1,0,-4,0,0,0
18:53:17.331131,0,-3,1,-2,-3,-4,-4,-3
18:53:17.352116,0,2,1,0,-1,1,1,0
18:53:17.353119,-1,1,-1,-1,-7,-2,-1,0
18:53:17.368110,0,0,-1,1,-1,-6,-2,1
18:53:17.375105,1,-2,-4,-3,-1,-1,-1,-1
18:53:17.390093,0,-2,2,3,3,-1,-2,-4
18:53:17.390093,-2,-2,1,-2,0,-2,0,2
18:53:17.412080,-1,-1,0,-1,-4,1,-2,-3
18:53:17.413079,-1,0,-3,-2,0,2,-1,-1
18:53:17.435068,-1,1,1,-1,0,-1,-1,0
18:53:17.435068,-1,1,3,11,5,-1,3,1
18:53:17.450059,-5,0,-2,0,2,0,-2,-2
18:53:17.451058,0,-1,2,-1,-5,-3,2,3
18:53:17.473043,-1,-1,-1,-3,-2,-1,0,-3
18:53:17.473043,2,-3,0,0,3,3,1,0
18:53:17.495031,-2,2,0,4,0,-3,-1,-1
18:53:17.495031,-4,-2,1,-3,-1,-1,-2,-4
18:53:17.510022,0,-2,0,-2,0,-4,-2,1
18:53:17.511019,-1,1,-2,-3,1,-1,-1,-1
18:53:17.533004,-1,-2,-1,-2,-2,2,0,-4
18:53:17.533004,1,-1,0,1,1,0,5,3
18:53:17.554994,0,0,0,1,2,-3,1,1
18:53:17.555990,-2,-1,-2,-1,2,-1,0,0
18:53:17.569985,0,1,-1,0,-2,-1,0,-1
18:53:17.570984,-6,-2,-1,-14,-6,-1,-1,0
18:53:17.591968,1,2,0,3,0,0,-3,-2
18:53:17.592967,-4,-2,-1,-1,-4,-1,0,-3
18:53:17.614956,-1,1,1,2,1,1,-1,-3
18:53:17.615953,-3,-3,-1,-4,-7,-4,1,0
18:53:17.629947,1,0,-1,0,-3,-1,-1,-1
18:53:17.630944,0,-1,0,-2,-4,-5,0,0
18:53:17.652930,-3,2,-3,-2,-1,3,-2,0
18:53:17.652930,-3,0,1,1,0,-1,-3,2
18:53:17.674919,-2,-2,-1,-2,4,1,0,-1
18:53:17.675915,0,1,-1,-5,-4,-3,0,1
18:53:17.697903,-4,-4,-2,-1,1,0,-2,-2
18:53:17.697903,-3,0,-2,0,4,1,0,1
18:53:17.712893,0,-2,-2,-1,-3,1,-2,-5
18:53:17.712893,-6,-4,-1,0,0,0,-3,-4
18:53:17.734882,2,-1,-1,4,-4,0,-1,1
18:53:17.735879,2,-3,2,-2,-2,0,-1,1
18:53:17.749869,-4,-3,-2,-3,-6,-2,-2,0
18:53:17.757868,1,0,-3,1,1,-2,-2,-1
18:53:17.772858,-2,-4,-1,0,-2,0,-1,0
18:53:17.772858,2,0,0,1,4,2,-2,0
18:53:17.794845,0,2,0,-3,-3,-1,-1,-1
18:53:17.795842,-2,-3,-2,-3,-3,0,-2,-1
18:53:17.809833,-2,-2,2,-4,-1,-2,1,-1
18:53:17.817828,-1,-3,0,1,-3,0,-1,1
18:53:17.832819,-2,-3,-4,-2,-3,-2,-3,-1
18:53:17.832819,0,-2,1,0,-3,-3,-1,-2
18:53:17.854808,-1,-4,-3,0,0,1,-1,-2
18:53:17.855804,0,1,-3,-3,-1,2,1,2
18:53:17.869798,-1,0,-1,-13,-3,0,1,-2
18:53:17.877791,2,3,1,10,8,-2,0,1
18:53:17.892781,-4,0,-1,-4,-2,-1,1,1
18:53:17.892781,-1,-1,0,-2,-1,0,-2,-1
18:53:17.914771,-2,0,-2,-1,0,-2,0,1
18:53:17.915770,-1,-5,-2,-1,-2,0,0,-2
18:53:17.929759,-2,-3,2,1,1,2,1,0
18:53:17.937756,-1,1,-2,-2,0,-3,-1,-2
18:53:17.952747,-1,1,1,-2,-2,3,-4,-4
18:53:17.952747,0,3,0,-3,-1,-1,-1,0
18:53:17.974733,1,0,-3,-1,2,0,-3,1
18:53:17.975733,0,-2,-4,-3,-3,0,0,-1
18:53:17.990723,-3,-3,-2,-2,0,0,-2,1
18:53:17.997719,0,0,1,1,5,3,-1,2
18:53:18.012707,1,1,1,-3,-8,-1,-5,-2
18:53:18.013708,-4,-1,1,1,1,-3,-3,-1
18:53:18.034696,-2,-5,1,11,2,-2,-1,0
18:53:18.035696,-4,-1,-1,-4,0,1,-3,1
18:53:18.050689,-1,-2,0,-3,-3,1,1,2
18:53:18.057682,-1,-3,-3,2,1,-3,1,2
18:53:18.072675,-5,-3,-2,0,-1,2,0,-3
18:53:18.073671,-1,1,-2,1,-3,1,-1,-1
18:53:18.094657,-3,2,-1,1,1,0,-1,-3
18:53:18.095656,1,0,1,-3,0,0,0,0
18:53:18.110647,0,-2,-1,-2,0,2,-1,-2
18:53:18.117645,-1,1,-3,-2,-2,-3,0,0
18:53:18.132635,1,-1,-2,0,1,2,1,-1
18:53:18.133632,-4,0,0,-3,-2,-4,-1,-1
18:53:18.154618,2,-2,2,-1,-3,-3,-3,0
18:53:18.155618,1,2,-1,-2,-4,1,2,1
18:53:18.170612,-1,-1,-2,1,-1,-1,-3,-2
18:53:18.177608,2,0,0,-1,-2,2,-2,0
18:53:18.192599,-1,1,3,-3,1,0,1,-3
18:53:18.193598,-3,0,-1,-2,-3,1,-2,0
18:53:18.214587,0,-2,0,0,0,1,2,-3
18:53:18.215581,-2,-2,-1,0,-4,-4,-3,-1
18:53:18.230572,-2,1,0,0,0,0,0,-3
18:53:18.237570,5,3,1,0,-3,1,3,1
18:53:18.252561,-3,4,4,0,0,-5,-2,-2
18:53:18.253559,-2,1,1,-3,-1,2,-1,-3
18:53:18.274545,-2,2,3,-2,-3,0,-2,0
18:53:18.275544,-1,-3,-2,-4,-2,-2,-3,-1
18:53:18.290535,-1,0,0,8,-3,-2,1,-1
18:53:18.297530,0,-1,-2,-2,2,-2,-4,-1
18:53:18.312520,6,2,-2,-5,-3,-1,-1,2
18:53:18.312520,0,0,-2,-1,-1,-1,1,-1
18:53:18.334507,-3,0,-2,-2,0,-3,-2,-1
18:53:18.335508,-2,-3,-1,-1,0,2,-2,-1
18:53:18.357495,0,-2,2,-4,2,2,-1,-2
18:53:18.357495,-1,-1,0,0,1,1,-2,-3
18:53:18.379479,8,-2,-4,-3,0,-4,0,2
18:53:18.380480,-1,-1,3,0,2,-2,-3,0
18:53:18.394470,3,1,-3,-1,0,-2,-3,4
18:53:18.395471,-1,1,0,0,2,-1,-2,1
18:53:18.417457,1,-2,-3,-3,0,-2,-1,-1
18:53:18.417457,-5,-3,-1,-1,0,0,0,1
18:53:18.432448,-1,0,-1,-1,-3,-1,-2,1
18:53:18.433447,-1,-3,-2,2,1,0,0,-1
18:53:18.454432,-1,-3,-1,-1,-4,-4,0,1
18:53:18.455434,2,2,-1,0,-1,1,-1,-1
18:53:18.477420,-3,0,-1,-3,-1,0,-2,-3
18:53:18.477420,4,-2,0,-2,-1,-2,-1,-2
18:53:18.492411,-3,0,0,0,-1,0,-1,-5
18:53:18.492411,-3,-3,-2,0,0,-1,-3,0
18:53:18.514397,-3,-3,-1,-3,-2,1,-2,-1
18:53:18.515395,2,1,-3,0,1,0,1,1
18:53:18.537383,-3,-3,-1,1,-4,-4,0,-1
18:53:18.537383,0,1,0,2,1,-2,-2,-2
18:53:18.552372,-2,-3,-1,-3,1,0,0,0
18:53:18.553372,-5,-3,-3,0,-1,-3,1,-2
18:53:18.574382,-4,-1,-3,0,-5,-3,-2,-1
18:53:18.575358,-2,0,-2,0,0,-1,-3,-2
18:53:18.597345,4,-1,-2,-4,-4,0,-1,0
18:53:18.598345,0,-1,0,2,0,0,-1,1
18:53:18.619333,0,-3,-1,1,-2,-2,-2,0
18:53:18.620329,-1,-3,1,0,-1,-2,-2,1
18:53:18.634324,-1,0,-2,-1,-3,-1,-1,-2
18:53:18.635320,-3,-2,-2,-2,2,-1,-3,-1
18:53:18.657308,2,0,-1,0,-2,-1,5,7
18:53:18.657308,2,1,0,-2,0,4,-1,0
18:53:18.672299,-4,-1,-1,0,0,2,0,-1
18:53:18.673303,-3,-2,-2,1,2,0,0,0
18:53:18.694287,-5,-6,-3,-4,0,0,1,-1
18:53:18.695283,2,0,1,-2,-2,-2,0,-2
18:53:18.717271,-3,-5,-1,-2,0,1,-1,0
18:53:18.718269,1,0,-2,1,1,2,0,2
18:53:18.732262,-1,0,-1,-2,-2,0,0,2
18:53:18.733259,-2,0,0,-1,-1,-4,-1,-1
18:53:18.754251,1,-3,-2,-3,2,-1,-1,0
18:53:18.755246,-1,0,-4,-1,-1,0,-1,-1
18:53:18.777234,0,-1,-2,1,2,-3,-2,-1
18:53:18.777234,0,-3,-3,-2,-2,-1,2,1
18:53:18.792223,-2,-3,-1,0,-2,-1,0,-3
18:53:18.793224,-3,-3,0,2,-3,0,-2,-4
18:53:18.814213,-2,-1,0,0,-1,1,-1,0
18:53:18.815209,-4,-4,-3,-1,-2,-3,-1,-1
18:53:18.837197,-3,-5,-1,-2,-3,-2,-1,-5
18:53:18.837197,-1,-1,-1,-3,2,-1,-1,3
18:53:18.852185,-1,0,1,1,2,0,1,1
18:53:18.853186,1,0,3,0,-2,-1,2,1
18:53:18.874176,2,-1,0,0,-2,1,1,-3
18:53:18.875180,0,-2,1,-2,-6,0,-1,-1
18:53:18.897160,-2,0,-4,0,-1,0,0,-2
18:53:18.898159,-1,-3,1,2,4,1,-1,0
18:53:18.912150,3,2,-1,-3,-5,2,2,2
18:53:18.913148,-1,-1,-1,-2,-1,5,-1,-2
18:53:18.935140,-3,-3,-1,3,-1,1,-1,-4
18:53:18.935140,2,-2,0,-1,-2,2,1,0
18:53:18.957122,-1,-2,-1,-1,0,-3,-4,1
18:53:18.958122,-1,-3,0,0,-2,-4,-2,-1
18:53:18.972113,1,-2,0,0,-1,0,-1,0
18:53:18.973112,0,-2,-2,-2,-4,-1,0,-5
18:53:18.995098,-9,-1,0,-4,1,-1,0,-2
18:53:18.995098,-3,-2,-3,-1,-3,-3,-3,-3
18:53:19.017084,-3,0,1,1,3,-1,-4,-2
18:53:19.018084,-5,-2,-1,0,-1,-1,-1,2
18:53:19.032074,-2,-3,1,-2,1,0,-1,-1
18:53:19.040071,-3,1,1,1,1,2,1,-1
18:53:19.054063,-2,-3,0,-4,-1,2,-3,-1
18:53:19.055062,0,0,-3,-2,1,-5,-3,-2
18:53:19.077047,-1,-3,-4,-3,0,-2,-5,-2
18:53:19.078047,-1,-1,3,-1,-4,-1,1,0
18:53:19.100034,-3,-1,-1,-2,-3,1,-2,0
18:53:19.100034,1,0,0,0,-1,-1,0,0
18:53:19.115023,-3,-2,3,1,-4,-1,1,-4
18:53:19.115023,1,1,-1,-1,-1,-2,-2,0
18:53:19.137009,-3,-3,0,-3,-2,-1,0,0
18:53:19.138008,-2,-2,0,0,0,0,0,1
18:53:19.159996,-4,-5,2,0,-6,-2,1,-3
18:53:19.159996,0,-1,-2,-1,0,0,0,-3
18:53:19.174985,0,-2,2,0,-2,-1,-3,3
18:53:19.174985,0,-1,-1,-1,-2,-3,1,-2
18:53:19.196972,-2,-2,0,0,-3,-1,-3,-1
18:53:19.197973,-5,1,2,1,0,-3,0,-2
18:53:19.219959,-3,3,-2,-2,1,-2,1,-4
18:53:19.219959,1,-1,0,-3,-1,-4,-2,-3
18:53:19.234948,0,-2,-1,1,-1,-1,-1,-1
18:53:19.234948,-2,-1,-1,-3,-3,-1,-1,-3
18:53:19.256935,-2,-1,-1,0,-2,-1,-4,-2
18:53:19.257936,-3,0,0,-1,0,3,0,-2
18:53:19.279921,-1,-2,-3,-2,-3,-1,-3,-2
18:53:19.279921,2,1,3,1,4,2,1,2
18:53:19.294913,-2,-4,-1,0,-3,1,-1,2
18:53:19.294913,0,0,1,-1,-2,-1,-1,0
18:53:19.316899,-3,-1,-3,-1,-3,2,-3,-3
18:53:19.317898,-1,-6,-4,1,0,-1,0,-2
18:53:19.339885,-1,-2,0,0,0,-1,0,1
18:53:19.339885,-2,-1,1,0,-1,-3,0,1
18:53:19.354876,0,-1,-1,-2,-2,-3,-2,-3
18:53:19.361875,1,0,0,0,0,0,-1,0
18:53:19.376873,-1,-1,2,-4,-2,-5,-2,-3
18:53:19.377860,-1,-2,-1,-1,2,-1,0,-2
18:53:19.399848,-5,-3,-5,1,2,-2,1,-2
18:53:19.400847,-3,1,0,0,-1,1,0,-2
18:53:19.414838,-2,-1,1,-1,-2,0,0,0
18:53:19.415838,0,0,-1,0,1,-1,1,3
18:53:19.436827,-3,-2,0,1,0,-2,-1,-2
18:53:19.437822,-1,1,0,0,0,-2,-1,-2
18:53:19.459810,-2,-3,-1,1,2,-1,-4,-1
18:53:19.459810,0,0,0,-4,0,0,1,-1
18:53:19.481798,0,-1,-2,0,-1,0,-2,-4
18:53:19.482800,-1,-3,0,-3,-5,-1,0,1
18:53:19.496790,-1,2,-1,-1,0,-1,0,-3
18:53:19.497786,-2,0,3,1,5,2,-1,-2
18:53:19.519773,-3,-2,-1,-1,-2,0,-4,1
18:53:19.520773,-3,0,-4,-4,-2,2,0,1
18:53:19.534764,-3,0,-1,-2,-4,-1,-2,-2
18:53:19.534764,-2,0,-3,-1,-1,1,-1,-2
18:53:19.556752,7,1,0,0,-2,1,0,0
18:53:19.557748,-2,-2,1,0,2,-3,-2,1
18:53:19.579736,-2,-3,0,-1,-2,-3,-1,-3
18:53:19.580734,0,-2,-1,-1,0,-1,1,-2
18:53:19.594727,1,-3,-2,-3,-4,-1,-2,-1
18:53:19.595725,1,0,-3,1,4,-1,-1,-2
18:53:19.617710,0,-4,-3,-3,0,-2,-3,0
18:53:19.617710,-4,-1,1,0,-1,1,0,-2
18:53:19.639699,-1,-1,-4,-2,0,-1,-4,-2
18:53:19.640698,0,-1,-1,0,2,-3,0,1
18:53:19.654690,-1,1,0,-4,-2,1,-3,-2
18:53:19.655688,2,-3,0,1,-4,-5,-2,-2
18:53:19.676679,-2,-3,1,-1,0,-3,-4,-4
18:53:19.677677,-6,-1,-3,-1,-1,-1,-1,-2
18:53:19.699662,7,0,0,-4,-3,-1,-1,1
18:53:19.700661,-4,-1,-3,-1,-1,-1,-1,0
18:53:19.714652,-3,-1,-3,-2,-1,3,-1,0
18:53:19.715652,0,-3,-2,-1,3,2,-2,-2
18:53:19.736641,-2,0,-1,-1,-4,-4,2,-4
18:53:19.737637,-1,-4,0,0,-1,-2,-1,-4
18:53:19.759624,-1,0,-1,-2,-1,0,0,-1
18:53:19.760622,0,-2,-2,-1,-3,0,-1,1
18:53:19.774615,0,0,1,2,-4,-1,0,-2
18:53:19.775615,-4,-1,0,-1,-3,-1,-1,1
18:53:19.797600,0,-4,-2,-3,-3,-3,-2,0
18:53:19.797600,1,-1,-4,-2,2,-3,-2,1
18:53:19.819585,-2,-5,-2,-2,-1,0,0,-3
18:53:19.820587,9,1,-3,0,-4,-1,0,0
18:53:19.834576,-3,-1,2,-1,-1,-2,-1,-4
18:53:19.835578,1,0,-1,-2,-1,0,0,2
18:53:19.857563,0,0,-2,-4,-4,0,-1,2
18:53:19.857563,-3,0,0,1,-5,-3,-2,3
18:53:19.879548,2,2,-1,-1,1,-2,-2,-1
18:53:19.880550,-1,-1,1,-2,0,-1,-1,0
18:53:19.902538,1,4,1,0,0,-1,0,0
18:53:19.903534,0,-1,1,0,-4,-1,-3,-3
18:53:19.917529,0,2,0,0,-1,0,0,0
18:53:19.918525,5,3,-1,-2,0,-1,0,2
18:53:19.939512,4,0,2,-4,1,-1,-2,4
18:53:19.940512,0,-4,-2,0,-3,3,-1,-1
18:53:19.955502,-3,-3,0,-1,0,0,-2,-3
18:53:19.955502,1,-2,0,-3,-2,-1,0,0
18:53:19.977491,2,1,-3,0,-1,-1,-1,-2
18:53:19.978488,0,-2,-1,2,2,1,-1,2
18:53:20.007473,0,0,-1,-2,-1,1,-2,-3
18:53:20.008471,-3,1,1,-2,-1,-2,0,-2
18:53:20.015467,0,-1,-1,0,1,2,1,-1
18:53:20.022463,-1,-2,0,0,-1,-4,-1,0
18:53:20.037454,1,-3,0,3,-1,0,0,4
18:53:20.038454,2,1,1,-3,-4,1,-4,0
18:53:20.060438,-4,-1,-4,-3,-2,-3,-4,0
18:53:20.060438,-5,-5,-3,-1,-6,-1,-2,-3
18:53:20.082426,0,0,0,-1,-1,0,2,-1
18:53:20.083425,0,-2,-1,-2,-6,0,-3,0
18:53:20.097417,-1,-1,-3,1,-3,0,0,0
18:53:20.098414,-1,1,-1,-1,-1,-3,0,1
18:53:20.120400,2,-1,0,1,0,-1,-4,-5
18:53:20.120400,-2,0,2,0,0,1,1,-4
18:53:20.142389,-5,-3,-2,-3,-4,1,2,-1
18:53:20.143388,2,0,-1,1,-1,0,-1,1
18:53:20.158376,-4,-1,-1,-2,-2,0,2,-2
18:53:20.158376,-2,-2,-1,0,-2,-2,-2,-3
18:53:20.180363,1,0,2,-1,0,-1,1,2
18:53:20.180363,2,-2,-2,-3,-3,-3,1,1
18:53:20.202349,0,-1,-3,-3,-2,1,-1,0
18:53:20.203351,0,1,-2,-2,-4,-1,0,-3
18:53:20.217343,-2,-2,-4,-2,0,-1,-4,0
18:53:20.218339,-1,0,-1,-1,1,-3,-2,1
18:53:20.240326,0,-2,-3,-1,-2,0,0,-1
18:53:20.240326,2,4,2,2,0,1,4,3
18:53:20.262315,-4,-3,1,-2,-1,1,0,-1
18:53:20.263314,-2,3,-3,-3,0,-3,1,-3
18:53:20.277305,-1,-3,-3,-3,-4,-2,-2,0
18:53:20.278305,-3,-3,-3,-3,-5,-2,-4,-1
18:53:20.300289,4,2,3,2,2,0,1,1
18:53:20.300289,-3,-1,0,-5,-2,-1,-1,1
18:53:20.322277,3,2,-2,0,-1,-2,-3,-2
18:53:20.323277,-4,0,0,-1,0,0,0,0
18:53:20.337268,-1,0,-2,-1,-4,0,-1,-1
18:53:20.338267,-1,-2,0,-2,-1,1,-1,1
18:53:20.360250,-2,-1,-2,1,0,0,2,-1
18:53:20.360250,-2,-1,-1,2,1,-3,1,0
18:53:20.382237,-1,-2,-2,-2,-3,0,-3,-1
18:53:20.383240,-1,2,0,2,5,1,0,5
18:53:20.397228,-1,1,-2,-4,-6,0,0,-1
18:53:20.398227,2,-1,-1,-1,0,-4,-2,0
18:53:20.420214,-2,-1,-2,-2,-2,-1,-1,-2
18:53:20.420214,-4,-2,-3,1,1,-1,1,0
18:53:20.442203,-1,0,-1,-2,0,-1,0,-2
18:53:20.443202,1,-1,-1,1,2,-1,6,5
18:53:20.458190,-2,-2,2,-3,-3,-2,-1,-2
18:53:20.458190,-3,1,-3,-1,-2,1,-1,-2
18:53:20.480177,-2,-1,-3,-4,-1,2,0,-1
18:53:20.481176,-1,-1,0,0,-3,-1,-2,-1
18:53:20.502166,-2,-2,-1,-1,-2,-1,-2,-2
18:53:20.503162,-1,-3,-5,-4,1,-1,0,-5
18:53:20.517156,1,0,0,0,-2,2,0,-2
18:53:20.518153,-1,-2,2,0,-1,-4,-4,0
18:53:20.540139,-1,-3,-2,-1,-1,0,0,-2
18:53:20.540139,-1,-4,0,-2,-1,-1,-3,-2
18:53:20.562127,0,3,4,4,-2,1,-1,3
18:53:20.563126,-2,-3,0,0,3,-1,0,-1
18:53:20.585115,3,1,-1,-2,-1,2,0,2
18:53:20.586114,-2,0,-3,2,-2,-3,-4,-3
18:53:20.600105,-1,-1,-3,-2,-1,0,-1,2
18:53:20.601106,-2,0,-1,2,0,-4,-1,-4
18:53:20.622088,1,2,1,-1,1,-2,-1,0
18:53:20.623089,8,3,-3,2,-5,0,2,2
18:53:20.638082,-1,-1,-2,0,2,0,-1,-2
18:53:20.645078,-2,-1,0,0,2,-1,-4,0
18:53:20.660065,-2,-1,-1,2,1,-4,1,-1
18:53:20.661066,1,-3,-1,0,-2,-1,3,1
18:53:20.682052,0,0,0,1,-3,-2,-2,-3
18:53:20.683054,2,-3,0,0,0,1,1,3
18:53:20.698042,2,1,-1,1,1,1,5,5
18:53:20.705040,4,0,0,-1,-3,-1,-2,1
18:53:20.720031,-1,0,-3,-1,-2,-1,1,0
18:53:20.721027,1,1,0,-2,-1,0,-2,0
18:53:20.742015,-2,0,-2,-3,-1,-2,-2,-3
18:53:20.743015,-1,1,-1,1,2,-2,-1,1
18:53:20.758004,-1,0,2,0,2,0,0,0
18:53:20.765003,-4,1,-1,-2,-3,0,-1,1
18:53:20.779993,-3,-4,-1,-2,0,1,0,0
18:53:20.780992,-1,-4,0,-2,-3,-1,1,0
18:53:20.801978,-2,-1,0,1,-1,-3,-2,1
18:53:20.802977,-1,-2,-1,0,-1,-4,-1,-1
18:53:20.817968,-1,0,-3,-1,-2,0,-2,-1
18:53:20.824965,-3,1,-1,2,-1,1,2,0
18:53:20.839956,0,0,1,1,-4,-2,-1,-2
18:53:20.840956,-2,-1,-1,-1,-2,0,-2,-1
18:53:20.862940,-3,0,-1,-2,-1,-1,-1,-1
18:53:20.862940,-1,1,-5,-2,-2,-2,1,-1
18:53:20.877930,1,-1,0,-3,1,2,0,-1
18:53:20.884929,-1,1,-2,-1,-3,2,-3,-2
18:53:20.899919,-4,-5,-2,0,0,-3,0,0
18:53:20.900916,1,-1,-1,0,-2,-1,-1,-2
18:53:20.922902,-2,-2,-3,-2,1,0,3,0
18:53:20.922902,-7,0,-2,-2,1,0,-1,-4
18:53:20.937896,1,-1,-1,1,1,-1,-3,1
18:53:20.952883,9,4,-1,-2,-1,-3,0,1
18:53:20.959882,-1,-3,1,-3,-4,1,-1,1
18:53:20.960882,-1,-3,3,0,-2,2,0,0
18:53:20.982865,1,2,0,-1,1,-3,-1,-2
18:53:20.982865,-2,-3,-3,-4,-5,-2,-2,-3
18:53:20.997859,0,-5,-3,-1,-5,-3,-5,3
18:53:21.004853,2,0,0,-1,-1,-1,-1,-1
18:53:21.019845,-2,-4,0,-3,-3,0,-2,-1
18:53:21.020841,1,0,0,0,1,-2,0,0
18:53:21.042827,-3,-2,0,0,-3,0,-2,1
18:53:21.042827,0,1,1,1,0,-1,2,-1
18:53:21.064817,3,2,-1,0,-1,2,0,0
18:53:21.065817,-3,0,-2,-3,-2,-1,0,-3
18:53:21.079804,0,-3,0,-3,0,-3,1,0
18:53:21.080804,0,1,-3,0,-4,1,0,2
18:53:21.102794,6,3,1,0,-1,2,0,1
18:53:21.102794,-3,-1,0,0,-2,-3,-1,1
18:53:21.117784,0,1,1,2,2,0,1,1
18:53:21.124777,-3,-3,-1,-1,0,-2,0,-2
18:53:21.139771,-3,-1,-3,-1,0,1,-2,-2
18:53:21.140770,2,-1,1,3,0,-1,-1,0
18:53:21.162754,-2,-3,-1,2,2,-3,-1,-2
18:53:21.163755,-2,-1,-2,0,0,0,-3,-2
18:53:21.184743,0,-2,-2,0,0,0,-1,-2
18:53:21.185740,1,-2,-4,-3,-2,-1,0,-1
18:53:21.199733,1,-1,1,0,0,-1,2,3
18:53:21.200733,0,-3,-2,-5,-3,-1,-1,0
18:53:21.222719,0,-2,-2,-2,2,0,-2,-3
18:53:21.222719,2,-1,-1,-1,2,-1,0,-1
18:53:21.244705,0,-1,0,1,-2,0,-1,-3
18:53:21.245705,-1,1,0,-2,-3,-2,-2,-4
18:53:21.267691,12,1,-1,-3,0,-1,-2,-2
18:53:21.268691,-3,-3,-4,-1,-1,0,-1,0
18:53:21.282679,-2,0,-1,0,-2,0,-1,1
18:53:21.283678,-2,1,-1,-2,-7,-3,-3,-2
18:53:21.304667,-5,-1,3,2,-1,-1,-2,0
18:53:21.305664,0,-2,-3,-3,-1,2,3,3
18:53:21.319659,0,-1,-3,-1,1,-1,-1,-3
18:53:21.320656,1,-1,-1,0,-3,-2,0,2
18:53:21.342641,1,-5,-5,-4,-3,0,-1,-1
18:53:21.342641,-1,1,-1,-1,0,-4,-3,0
18:53:21.372626,0,-2,0,-2,1,0,-2,-1
18:53:21.373628,1,-1,0,2,-4,0,1,0
18:53:21.379619,-3,1,0,-2,-2,-2,0,-3
18:53:21.380621,1,2,2,4,7,2,2,3
18:53:21.402608,-5,-2,0,0,0,-3,-3,1
18:53:21.403604,-2,2,0,-2,-2,-1,-3,-1
18:53:21.424594,-3,-3,1,-2,1,-3,1,-3
18:53:21.425590,-1,0,-1,-2,0,3,1,1
18:53:21.439586,-2,0,-1,-2,0,-3,-4,-3
18:53:21.440582,0,-2,-1,-2,0,1,0,1
18:53:21.462570,-3,-3,1,1,0,-2,-1,-1
18:53:21.463567,2,1,-5,0,1,-1,2,-1
18:53:21.484553,-1,-3,-2,-5,-1,-2,-2,-1
18:53:21.485555,0,-2,-2,-4,-4,-3,1,-3
18:53:21.500547,2,3,3,2,3,0,1,2
18:53:21.507542,-1,0,-1,0,-1,-1,2,-1
18:53:21.522533,-2,-1,2,-2,1,-2,-1,-1
18:53:21.523529,-1,1,0,1,-2,1,-1,-1
18:53:21.544519,-3,-1,-1,-1,-1,-1,-1,1
18:53:21.545519,-2,-1,-2,1,-2,-1,-2,-1
18:53:21.560509,9,3,2,0,-1,1,-1,3
18:53:21.567505,-1,-1,-1,-1,-3,-1,-4,-3
18:53:21.582495,-1,-1,0,-3,3,-2,0,-2
18:53:21.583495,-1,-2,1,2,-3,0,-4,-2
18:53:21.605480,-1,5,-1,2,1,2,3,1
18:53:21.605480,-1,0,-1,0,-2,-1,3,0
18:53:21.620469,-2,-2,-2,-1,-1,-2,-1,-3
18:53:21.627468,-1,-2,-1,2,1,-2,-1,1
18:53:21.642459,-1,-1,-2,2,-2,1,0,0
18:53:21.643458,-1,-2,0,-2,-4,2,0,-1
18:53:21.665442,1,1,2,2,0,-2,-1,-1
18:53:21.665442,0,-2,-3,-4,1,-3,-1,-2
18:53:21.687431,2,-1,-1,0,0,0,-1,0
18:53:21.688430,1,1,1,-2,-1,-3,0,1
18:53:21.702422,0,3,0,1,0,-2,1,-2
18:53:21.703417,-3,-5,-1,-1,-3,0,-2,-1
18:53:21.724405,-2,-3,-2,1,-1,-5,-3,-3
18:53:21.725405,-3,-2,-3,1,-2,-4,-1,-4
18:53:21.740395,-2,-5,3,2,-1,1,0,2
18:53:21.747392,-1,-2,0,0,-1,1,-1,-3
18:53:21.762384,-3,0,1,-2,1,-2,-4,-4
18:53:21.763381,-1,-2,-1,-2,1,-2,0,-2
18:53:21.785370,-3,-1,-3,-2,1,2,0,0
18:53:21.785370,-1,0,-1,1,0,-3,-1,0
18:53:21.800361,-2,-2,0,-3,-1,0,-2,-1
18:53:21.807356,-2,0,-2,-5,-4,-1,-2,-3
18:53:21.822347,-2,1,-1,-2,-4,-5,0,-3
18:53:21.823347,10,3,1,-1,2,-1,2,7
18:53:21.845331,-1,-1,2,0,1,0,1,-1
18:53:21.845331,-2,-2,-1,-1,-2,0,1,0
18:53:21.860321,-1,-3,-2,1,3,-1,-3,-3
18:53:21.867318,-4,-5,0,-1,-3,-3,-1,-2
18:53:21.882309,5,2,0,1,-1,-4,-1,0
18:53:21.883309,2,1,1,-1,-1,-2,0,4
18:53:21.905293,-3,-3,-1,-2,-1,0,-3,1
18:53:21.905293,-2,-5,-2,-1,-5,0,0,0
18:53:21.920287,-2,2,-2,-2,-1,1,-2,-1
18:53:21.927281,-1,0,-4,-1,-2,-1,-4,-2
18:53:21.942273,-1,-3,-1,-1,-5,2,-1,-1
18:53:21.943272,0,-2,1,-2,-2,-5,1,0
18:53:21.965255,0,1,0,0,2,0,-5,-6
18:53:21.965255,6,1,-2,-3,-3,0,2,2
18:53:21.980249,0,6,-1,-1,0,-1,1,2
18:53:21.995240,-3,-2,-2,-2,-4,-1,-1,0
18:53:22.002236,-4,-2,1,-2,-2,-2,-1,0
18:53:22.003235,-1,-1,1,-3,-1,1,-1,1
18:53:22.025218,0,0,-1,2,1,-3,-1,-4
18:53:22.025218,0,1,-1,-1,-1,-1,2,-1
18:53:22.040212,-3,1,-2,0,0,-1,-2,-4
18:53:22.055203,-3,0,-2,0,-3,-1,1,2
18:53:22.062198,1,1,1,2,2,-1,0,-3
18:53:22.063195,3,3,0,2,5,5,1,4
18:53:22.085184,-1,-1,-1,-1,-1,-1,-1,0
18:53:22.085184,-4,-1,-2,-3,-6,1,0,-2
18:53:22.108167,1,-2,1,0,1,-1,0,-1
18:53:22.108167,-1,-1,1,0,-3,-4,-1,-1
18:53:22.122158,0,-1,0,0,-1,1,1,-2
18:53:22.123160,-1,0,-2,-1,-1,0,-2,0
18:53:22.145148,0,-1,-2,-3,0,-2,0,-1
18:53:22.146146,-1,-2,2,0,-1,0,-1,3
18:53:22.167133,-3,0,-1,-1,0,-1,-1,0
18:53:22.168130,0,1,-3,3,-4,2,-1,1
18:53:22.182124,-1,-1,-3,2,0,3,1,-3
18:53:22.183123,0,-1,1,3,5,0,-1,1
18:53:22.205110,-4,-4,-5,2,-1,-2,0,-2
18:53:22.205110,-6,-1,0,2,-2,-2,0,1
18:53:22.227095,2,2,-2,0,2,2,0,-1
18:53:22.228093,-3,0,-2,1,1,-2,0,0
18:53:22.242085,-1,1,-3,-2,-2,-1,-1,-2
18:53:22.243086,-3,-1,2,0,1,-1,-1,-1
18:53:22.265073,-3,-1,-1,1,0,3,-1,0
18:53:22.266071,0,-2,-4,-1,-5,-1,-2,0
18:53:22.287055,-2,0,-1,1,1,-4,-2,-1
18:53:22.288057,-3,0,0,-2,-3,1,-1,-1
18:53:22.302050,-2,-1,0,1,-2,0,0,2
18:53:22.303049,-4,-2,-1,0,2,2,-2,1
18:53:22.325036,-5,-2,-3,-1,-3,-1,-4,-2
18:53:22.326034,-2,-1,-3,0,-3,-2,-2,-2
18:53:22.348021,-2,2,0,0,1,-3,-1,0
18:53:22.348021,0,0,-1,-2,-1,1,0,4
18:53:22.362010,-1,1,1,-1,-1,-1,1,0
18:53:22.370008,-2,0,-3,-1,-3,-3,-1,2
18:53:22.384998,0,0,1,0,-2,1,1,-2
18:53:22.385994,-1,0,-1,-1,0,1,-1,1
18:53:22.407981,-4,-3,-1,-4,-2,-2,-2,-2
18:53:22.407981,1,-2,-1,0,-2,-2,-3,0
18:53:22.422972,-4,0,1,2,-2,0,-1,0
18:53:22.429970,-1,-2,0,0,1,-3,0,2
18:53:22.444961,-1,-2,1,-1,-1,-4,-2,0
18:53:22.445957,0,-6,-2,2,-1,-2,-1,1
18:53:22.467944,-3,0,-3,0,1,1,2,-2
18:53:22.467944,3,-1,-1,-2,-1,3,0,1
18:53:22.482935,-4,-1,-2,5,4,0,-1,-3
18:53:22.489933,0,-1,0,0,-1,-2,-3,-2
18:53:22.504924,1,1,-2,-3,0,-2,1,2
18:53:22.505920,-3,0,0,1,-1,2,-1,-1
18:53:22.527907,-3,-1,-3,-2,-2,2,-2,-1
18:53:22.527907,-1,1,-5,1,-3,-1,-2,-3
18:53:22.542900,0,-2,-3,-2,2,-3,-1,1
18:53:22.549896,-2,1,1,1,-1,-3,-3,-2
18:53:22.564887,-2,-3,-1,0,2,-1,-4,0
18:53:22.565886,-1,0,0,-2,-4,-3,0,0
18:53:22.587871,-3,-3,-1,-1,-7,-1,-1,0
18:53:22.587871,1,5,1,-1,0,1,-1,0
18:53:22.602860,3,-1,-3,-1,0,-2,0,0
18:53:22.617852,0,3,-1,-2,1,1,1,1
18:53:22.624849,-3,3,-2,-4,-7,-5,-3,0
18:53:22.625845,-1,0,-3,-5,1,5,0,-4
18:53:22.647832,-5,0,-1,1,1,1,-2,-4
18:53:22.647832,-3,-2,-1,0,2,-2,0,1
18:53:22.662825,-1,0,-1,-1,-3,0,-3,-1
18:53:22.669820,-1,0,2,1,-1,0,-4,-1
18:53:22.685812,-3,0,-4,-1,-5,-3,1,0
18:53:22.685812,-4,-2,-3,-5,-3,0,-2,-4
18:53:22.707795,-4,-2,-1,0,4,3,0,0
18:53:22.707795,-3,-2,-1,-1,-2,-3,-1,1
18:53:22.722789,-1,-3,0,-1,-4,1,-2,-2
18:53:22.729782,-5,0,0,-3,-3,-2,-3,0
18:53:22.744775,0,0,-2,-1,-1,-4,-1,-1
18:53:22.745772,-3,0,-3,-1,-5,1,-1,-1
18:53:22.767757,-1,-3,0,0,1,-3,1,-2
18:53:22.767757,0,0,-1,-1,0,-3,-1,1
18:53:22.789747,-1,0,-1,-1,4,-3,-1,-1
18:53:22.790746,-1,-2,0,8,4,-1,0,-2
18:53:22.804735,-1,-2,-3,-3,0,0,-1,-2
18:53:22.805737,-2,-2,1,-5,-9,-6,0,-3
18:53:22.827720,1,-3,1,0,-3,2,2,0
18:53:22.827720,-1,2,-1,-1,1,-5,3,-1
18:53:22.842714,0,1,-2,0,-2,1,0,1
18:53:22.849708,0,0,-2,-3,-1,-1,-3,1
18:53:22.864699,5,6,3,1,-43,-2,0,3
18:53:22.865698,-3,-2,-2,-8,2,-1,-2,-2
18:53:22.887684,1,2,0,8,3,1,0,-1
18:53:22.887684,-1,1,-1,-3,3,3,-1,0
18:53:22.902677,1,-1,0,-5,-4,0,-1,-3
18:53:22.909670,0,1,3,5,4,1,0,4
18:53:22.924660,-1,-1,-3,-3,-1,-5,-3,0
18:53:22.925663,-4,-1,-1,-1,-1,-1,0,-2
18:53:22.947649,-3,1,3,1,1,-1,0,-2
18:53:22.947649,-1,-4,-4,-4,2,-1,-1,-2
18:53:22.962640,-1,-1,-1,1,7,2,-3,-2
18:53:22.969632,-3,-5,-9,-22,-52,-3,-3,-3
18:53:22.984625,-1,1,5,6,15,3,0,-2
18:53:22.985624,-3,-2,-3,-1,-3,1,-1,3
18:53:23.007609,-5,-3,-4,-6,-6,-6,-4,0
18:53:23.008611,0,1,1,0,-4,1,-1,-5
18:53:23.022603,0,1,-5,-2,-1,-3,-1,0
18:53:23.030595,-2,-8,-9,-10,-9,-2,0,-6
18:53:23.045588,1,2,6,2,5,1,2,2
18:53:23.045588,0,1,2,3,26,3,1,1
18:53:23.067575,-1,2,3,-7,-41,-3,-2,0
18:53:23.068571,-11,-13,-13,-5,4,-10,-7,-6
18:53:23.090557,2,0,5,29,3,6,0,2
18:53:23.090557,4,4,-2,-10,-19,-6,4,3
18:53:23.105549,-13,-7,-1,0,2,4,-2,-9
18:53:23.105549,2,9,1,-21,-80,-1,2,0
18:53:23.127538,1,0,-1,16,47,-10,3,0
18:53:23.128534,0,0,14,7,-40,-14,4,-1
18:53:23.157516,0,5,-25,-44,99,31,-5,0
18:53:23.158517,-8,-6,-5,-27,127,-6,-6,-9
18:53:23.165511,3,2,28,63,-128,-17,5,2
18:53:23.172510,-6,-22,-22,10,-128,-123,-6,-2
18:53:23.187501,9,11,-28,-128,23,-70,-1,2
18:53:23.188497,-31,-81,-41,127,-128,-110,-12,-13
18:53:23.209484,20,71,15,-128,80,57,27,10
18:53:23.210486,-3,-28,31,-128,127,61,-34,6
18:53:23.225474,-29,-38,-75,1,-128,-89,0,9
18:53:23.232470,4,-27,-91,-128,-95,-88,-2,10
18:53:23.247463,8,-3,-58,-128,-38,-9,13,12
18:53:23.248461,-1,-12,-8,-128,-128,-85,-3,-16
18:53:23.270449,34,120,127,-42,-128,-59,22,17
18:53:23.270449,-59,-87,-86,-128,-128,-64,-34,-44
18:53:23.285437,27,79,127,97,127,127,10,23
18:53:23.292436,10,23,-49,-128,-123,-79,-3,15
18:53:23.307426,25,56,119,127,127,-3,14,13
18:53:23.308423,12,-32,-66,-128,-128,-128,-1,7
18:53:23.330409,-7,21,81,127,127,127,9,-12
18:53:23.331411,-16,6,-35,-128,-128,-128,-28,-6
18:53:23.345402,6,72,80,55,127,-43,-3,-8
18:53:23.352398,-6,-5,127,127,26,127,15,-3
18:53:23.367389,10,14,-16,14,-95,83,7,18
18:53:23.368388,42,127,106,126,127,-93,-5,9
18:53:23.390373,-9,-85,-97,-4,-128,-128,-19,4
18:53:23.391374,72,127,127,-10,-60,-128,2,12
18:53:23.412361,55,127,127,127,62,127,44,24
18:53:23.413358,5,115,101,-128,-128,-114,-35,0
18:53:23.427352,4,-63,-82,127,127,127,39,26
18:53:23.428348,-28,-17,63,127,-6,-51,-7,-22
18:53:23.450336,0,1,32,127,-128,73,16,2
18:53:23.451337,74,127,-41,-128,-128,-128,-10,16
18:53:23.465328,-75,-78,-34,121,-128,-128,-36,-27
18:53:23.472322,-32,-128,-128,-9,127,127,-17,-23
18:53:23.487315,22,60,33,-128,-42,-128,-4,7
18:53:23.488314,-62,-128,-128,127,127,126,5,-23
18:53:23.510299,58,127,117,74,127,83,22,24
18:53:23.510299,-35,-128,-89,127,127,127,13,-9
18:53:23.525288,-18,-128,-128,-128,-27,9,0,6
18:53:23.532283,41,127,127,-55,101,17,-19,-2
18:53:23.547277,-33,-50,-27,-123,-128,-74,2,-8
18:53:23.548277,-75,-128,-128,-50,-36,127,-4,-25
18:53:23.570260,19,19,-6,-128,120,48,0,5
18:53:23.570260,-12,-29,17,-128,127,127,2,-14
18:53:23.585254,-9,-56,-84,-128,-128,-128,-11,3
18:53:23.592246,-5,-91,-70,127,127,60,11,-4
18:53:23.608237,16,53,62,-16,127,-58,-4,5
18:53:23.608237,7,47,78,30,-77,33,0,-5
18:53:23.630223,-4,-22,-27,99,53,51,0,0
18:53:23.631225,-25,-75,-38,112,-88,-119,-16,-11
18:53:23.645216,14,-12,18,127,127,127,32,11
18:53:23.652210,7,44,27,-128,-108,-107,-5,10
18:53:23.667202,-3,-5,-16,38,-4,111,1,-2
18:53:23.668201,-13,-43,-6,64,52,124,4,-5
18:53:23.690188,39,127,116,127,-128,127,16,17
18:53:23.690188,-22,-36,-47,-106,-128,-81,-14,-9
18:53:23.705179,-47,-100,-107,9,-25,-49,-27,-27
18:53:23.712173,8,5,-6,127,-128,-24,0,2
18:53:23.727164,20,20,-6,-128,127,94,23,13
18:53:23.728163,2,11,14,78,127,24,1,5
18:53:23.750151,16,64,101,127,127,127,5,1
18:53:23.751149,8,26,36,-116,-128,-128,-5,7
18:53:23.772135,-5,18,21,-75,-128,-110,-11,-5
18:53:23.773135,-24,-67,-66,72,60,126,21,2
18:53:23.787129,13,53,71,126,-128,4,9,2
18:53:23.788128,-1,0,-4,-60,-44,14,9,1
18:53:23.810112,2,-7,-6,-68,58,44,6,4
18:53:23.810112,22,77,77,-70,-65,-5,-3,3
18:53:23.825105,-5,-4,-7,-30,-104,-116,-10,-2
18:53:23.832097,18,38,22,38,127,-34,11,7
18:53:23.848088,-4,-14,-13,51,-2,-8,5,1
18:53:23.848088,1,-12,-28,-37,-104,61,8,3
18:53:23.870077,-2,10,21,-9,-127,-28,-5,-7
18:53:23.870077,-5,19,10,20,-102,-47,-19,-11
18:53:23.893062,-1,-1,-9,-82,-126,5,-3,5
18:53:23.893062,-5,-22,-21,-128,-125,-37,-4,-5
18:53:23.908053,-15,-25,-31,10,127,-53,-8,-15
18:53:23.908053,4,18,31,14,98,55,0,0
18:53:23.930037,-12,-26,-10,0,58,27,-9,-8
18:53:23.931037,-8,-14,-11,-18,-56,-19,-7,1
18:53:23.953024,13,17,8,37,85,-5,-1,1
18:53:23.953024,0,-3,-13,-48,-128,-128,-12,1
18:53:23.975012,-1,-4,-9,51,127,-25,0,1
18:53:23.976010,-19,-39,-30,63,-108,-43,-13,-11
18:53:23.990000,-19,-51,-61,-128,43,12,-6,-9
18:53:23.990999,6,14,15,-123,-86,-51,-7,-1
18:53:24.012986,2,16,-12,-76,17,33,3,-1
18:53:24.012986,-8,-5,-15,-15,106,41,-1,-6
18:53:24.027978,-20,-74,-94,-128,-128,31,-3,-3
18:53:24.027978,20,72,66,-1,-128,105,7,5
18:53:24.050964,13,69,50,37,-128,109,-8,-2
18:53:24.051962,-28,-84,-61,93,127,127,4,-9
18:53:24.072951,2,-52,-57,-40,-96,-4,1,8
18:53:24.072951,-9,9,15,18,-128,-108,-17,-6
18:53:24.087942,19,51,49,22,-78,-67,5,10
18:53:24.087942,3,6,10,-20,9,-21,4,1
18:53:24.109928,-13,-32,-41,-37,123,103,-7,-13
18:53:24.110928,-1,-6,4,21,5,18,2,2
18:53:24.132912,-2,-2,-5,-47,-20,-8,0,0
18:53:24.133912,-1,-3,-4,1,127,47,5,0
18:53:24.147902,-4,-4,-2,9,27,4,-2,1
18:53:24.147902,-4,-2,-3,-4,-12,-5,-1,-3
18:53:24.169891,-1,0,-1,-1,-3,-4,-3,-2
18:53:24.170890,-1,0,-4,4,4,1,-1,-3
18:53:24.192875,0,3,-2,1,3,5,1,-2
18:53:24.193873,-5,-2,-4,-1,-3,-3,-3,-1
18:53:24.207867,7,0,2,1,0,1,-1,0
18:53:24.207867,-26,-15,-19,-21,-18,-14,16,-23
18:53:24.229851,48,-5,9,11,9,3,0,-14
18:53:24.230854,11,-31,-10,-11,-5,8,-12,11
18:53:24.259835,-10,-40,-11,-11,-12,-45,112,25
18:53:24.260833,-26,22,14,7,11,8,-115,-14
18:53:24.267830,-59,-10,-24,-23,-10,28,127,89
18:53:24.267830,-16,-69,16,12,21,27,105,44
18:53:24.289814,-128,70,-23,-29,-52,-128,127,-85
18:53:24.290816,48,-45,14,26,32,90,-128,127
18:53:24.312799,127,-74,-4,0,-26,-53,-101,-63
18:53:24.312799,-128,67,3,-8,-26,-69,67,-62
18:53:24.327790,-128,-17,19,33,53,68,96,-33
18:53:24.327790,83,82,-5,-44,-78,-66,54,127
18:53:24.349779,-68,-4,20,77,127,30,-29,-38
18:53:24.350776,127,48,-22,-128,-128,-114,-33,105
18:53:24.372768,-7,12,42,8,-60,-108,-21,-22
18:53:24.372768,-127,-116,21,116,-24,15,46,-127
18:53:24.387754,76,84,-44,-97,-128,-55,-26,127
18:53:24.387754,1,84,65,89,-62,-24,-128,-43
18:53:24.409741,127,-113,-53,-37,61,121,-128,127
18:53:24.410742,-23,46,69,-27,127,-70,114,-69
18:53:24.432728,-87,-128,-28,70,88,79,122,-50
18:53:24.433728,127,70,49,69,-109,51,19,127
18:53:24.447716,-90,2,16,127,127,82,127,-92
18:53:24.447716,127,41,20,-36,-16,43,127,127
18:53:24.469704,48,10,-4,-36,-54,42,127,-29
18:53:24.470704,-23,3,32,-28,10,-2,-128,78
18:53:24.492691,-25,-9,17,3,-117,-38,62,-68
18:53:24.492691,-43,-18,-11,37,127,-9,-74,-32
18:53:24.507682,-94,-60,7,-22,127,42,-47,-44
18:53:24.515674,-19,-10,-13,39,-22,-9,-81,-58
18:53:24.529664,48,-9,-3,7,-92,5,105,43
18:53:24.530665,13,-3,15,36,35,4,-50,32
18:53:24.552654,-42,-29,7,31,12,-27,14,-7
18:53:24.553653,-37,-20,-52,-102,-58,-60,127,-57
18:53:24.567644,101,28,35,39,1,90,29,127
18:53:24.568643,-11,25,12,1,-6,-27,-5,-29
18:53:24.589628,-42,-8,-7,-35,-90,-75,-13,-53
18:53:24.590630,17,-7,-22,-19,-128,4,-9,-8
18:53:24.612617,1,15,27,27,-128,-75,-3,0
18:53:24.613614,12,-33,-24,20,127,18,-19,3
18:53:24.627605,-25,-4,-7,-87,3,39,14,-4
18:53:24.627605,30,-4,-5,15,53,-14,3,30
18:53:24.650592,69,37,9,14,127,15,-45,42
18:53:24.650592,-62,-33,-11,-128,127,8,-55,-33
18:53:24.672580,-14,-13,-34,-75,127,-30,17,-4
18:53:24.673576,59,14,15,127,-128,-24,-38,0
18:53:24.687570,93,12,-19,-40,52,25,-8,19
18:53:24.688568,0,28,32,80,-6,2,-36,-28
18:53:24.710556,113,63,7,-9,-128,3,101,58
18:53:24.710556,-17,-5,13,59,-28,4,2,-20
18:53:24.732543,-48,-24,-21,-47,-128,-67,-34,-47
18:53:24.733545,95,30,23,45,127,85,19,84
18:53:24.747530,-38,16,-2,-52,-45,9,41,2
18:53:24.755526,-29,-3,7,-32,-128,-16,22,-12
18:53:24.769517,-27,-17,-6,8,-18,0,-14,-23
18:53:24.770518,7,-2,-4,-10,-29,4,-8,13
18:53:24.792505,-2,2,-8,81,40,8,9,-12
18:53:24.793501,-4,-2,6,-53,-28,-30,-7,-10
18:53:24.815488,-6,-3,0,24,49,15,-66,3
18:53:24.815488,0,2,4,-56,-128,-19,4,-1
18:53:24.830478,-24,-19,-8,28,42,-5,-14,-18
18:53:24.830478,2,4,-3,-8,-26,2,8,1
18:53:24.852468,-1,1,-2,0,-17,0,2,-9
18:53:24.853467,1,-2,0,0,-6,-4,-1,-11
18:53:24.875450,11,11,3,2,2,11,13,15
18:53:24.875450,-17,-10,-6,-5,-5,-10,-4,-6
18:53:24.890442,1,-3,-6,-6,-7,-24,-24,2
18:53:24.891444,4,1,5,15,-51,-6,3,2
