timestamp,emg1,emg2,emg3,emg4,emg5,emg6,emg7,emg8
15:38:13.152712,-1,-3,-3,-9,-4,-1,0,1
15:38:13.153712,-1,-1,0,-2,-4,1,-1,-1
15:38:13.160707,3,2,1,-1,-7,-3,-2,-4
15:38:13.176698,1,-3,3,-1,1,0,-1,0
15:38:13.182694,0,-2,-1,-1,-3,-3,-1,-1
15:38:13.197687,1,0,-3,-6,-2,1,-3,-2
15:38:13.205682,-1,3,2,4,5,0,-3,0
15:38:13.212678,-3,-3,2,14,-1,-3,-1,1
15:38:13.219670,3,1,-3,0,-6,0,-3,-2
15:38:13.235664,-2,1,0,1,5,-1,0,-1
15:38:13.242656,-3,1,-1,-2,-9,-2,-4,-1
15:38:13.257650,-1,1,2,-4,-6,-3,-3,-1
15:38:13.265645,3,3,0,3,5,-1,1,1
15:38:13.279634,-1,-1,1,-2,1,-2,-3,2
15:38:13.280633,1,2,0,-1,0,-2,-5,-1
15:38:13.295623,-1,-3,-2,4,6,0,-3,-2
15:38:13.302619,1,1,1,-14,-17,1,-2,-1
15:38:13.317609,-2,-2,-1,3,2,0,-2,-2
15:38:13.325608,6,2,2,4,4,2,2,0
15:38:13.340598,-2,1,-2,-2,3,-1,-1,-3
15:38:13.340598,-1,-1,-3,-3,3,-1,0,-1
15:38:13.355588,0,-2,-1,-2,-6,0,0,-1
15:38:13.362584,1,1,1,4,6,2,-5,-2
15:38:13.377575,1,0,-1,-4,-9,-1,-1,-1
15:38:13.385570,4,-1,1,-6,0,-1,-3,1
15:38:13.400558,3,1,0,-17,-9,-4,-4,0
15:38:13.400558,1,-1,-3,4,7,0,-5,-3
15:38:13.415549,-3,-1,0,-3,-6,-3,-3,1
15:38:13.422545,3,3,1,-2,-6,-4,-1,-1
15:38:13.437536,-1,1,-4,-2,-5,1,-1,-1
15:38:13.445531,2,-1,0,2,1,0,0,2
15:38:13.460525,0,2,2,8,3,1,1,-2
15:38:13.460525,0,0,0,-5,-6,-3,1,-4
15:38:13.475514,0,0,-3,1,6,3,2,1
15:38:13.482508,-1,0,0,11,4,-4,-3,-2
15:38:13.497501,-2,-3,-2,-5,-6,-2,-2,0
15:38:13.505496,-1,-1,-1,3,5,-2,-3,-4
15:38:13.520486,-1,-4,-1,1,-1,0,-3,-3
15:38:13.520486,0,1,1,2,-2,0,-2,2
15:38:13.535477,-1,-1,0,-2,-2,0,0,-2
15:38:13.542471,-3,0,-3,-2,-1,-4,-1,-2
15:38:13.557461,0,-1,-2,-12,-3,-1,-3,0
15:38:13.565456,1,3,5,10,8,-1,-2,3
15:38:13.580448,3,-3,-2,-4,-6,-3,2,0
15:38:13.580448,0,-1,1,-2,1,0,1,3
15:38:13.602436,-1,-2,0,1,3,-1,-1,-2
15:38:13.603435,-3,1,1,-22,-11,-5,-5,-3
15:38:13.617423,-1,0,-3,3,6,-3,-2,-3
15:38:13.625422,0,0,-1,5,5,-1,-1,-2
15:38:13.640409,-1,-3,-1,-2,-1,-2,-1,0
15:38:13.640409,-2,-2,-1,-5,-2,-5,-1,-1
15:38:13.655400,0,1,1,3,0,0,1,-1
15:38:13.662397,0,3,0,0,-4,1,-4,0
15:38:13.685381,-2,-1,1,2,-2,0,0,4
15:38:13.686380,0,2,1,4,2,-7,-5,-3
15:38:13.700372,1,0,-2,2,-1,-2,0,1
15:38:13.700372,-3,-3,1,3,-6,-1,1,2
15:38:13.715366,0,-3,1,0,2,2,-2,-1
15:38:13.722358,1,-2,-3,-1,1,2,-2,-1
15:38:13.737350,-3,-3,-1,-28,-21,-2,-2,-2
15:38:13.745344,0,0,-2,6,5,-2,0,-2
15:38:13.760336,-2,-1,-3,2,0,0,-4,-1
15:38:13.761337,1,-1,1,4,2,-2,2,1
15:38:13.775329,0,-2,-4,-3,-3,-1,-1,3
15:38:13.782321,-1,3,-1,-3,-5,-1,-3,0
15:38:13.797312,0,-1,-1,1,-1,-2,-2,-1
15:38:13.805310,-3,-4,0,-1,-6,-5,-2,-4
15:38:13.820301,1,1,0,-4,2,4,1,1
15:38:13.821302,0,-1,0,0,4,-2,0,2
15:38:13.835292,1,-1,1,2,5,-2,2,0
15:38:13.842284,-3,-2,-3,0,0,-1,0,0
15:38:13.857278,1,1,-2,0,-2,-1,-3,-2
15:38:13.865270,3,3,-1,0,-1,-1,-2,0
15:38:13.880261,-1,0,1,0,-2,-2,-1,1
15:38:13.881260,1,-1,0,1,4,-3,-3,-1
15:38:13.895254,-2,-2,2,15,-1,-2,0,-5
15:38:13.902248,2,-2,-4,-11,-3,0,5,2
15:38:13.918239,1,-5,1,0,3,-1,1,0
15:38:13.925235,2,2,-3,-2,-1,-2,-7,0
15:38:13.940226,-1,2,-2,-2,-4,-4,-1,0
15:38:13.940226,0,-3,0,0,0,-1,-3,1
15:38:13.955217,-1,-2,-2,1,1,0,-1,-1
15:38:13.963211,3,-1,1,0,2,0,-5,-1
15:38:13.978203,-3,-1,1,0,-6,-1,0,-1
15:38:13.993191,2,2,2,3,-1,-1,-2,1
15:38:14.008181,-1,-5,-3,-1,2,1,2,0
15:38:14.008181,-1,-1,1,-4,2,3,-2,0
15:38:14.015180,-1,2,0,3,-5,-4,1,-1
15:38:14.022172,3,-3,6,7,5,0,-1,1
15:38:14.038166,0,0,-1,-1,-8,-1,0,-1
15:38:14.045162,0,1,0,17,18,1,-1,3
15:38:14.060151,-5,-1,0,-8,-6,-1,-1,-1
15:38:14.061151,2,-3,0,-1,6,0,0,0
15:38:14.075142,-1,-1,-3,1,-1,1,-2,0
15:38:14.082138,1,0,-2,4,4,1,-3,0
15:38:14.098128,0,1,0,2,-2,-3,-2,0
15:38:14.113119,0,-1,-2,-1,-2,0,0,-3
15:38:14.120112,-1,3,-2,-3,0,2,0,0
15:38:14.121114,1,-1,-1,-3,-1,-3,0,-3
15:38:14.135102,0,-1,-3,-1,6,-1,-3,-1
15:38:14.142098,-4,-4,1,-4,-8,-6,-2,-1
15:38:14.158088,-3,-1,0,-5,-1,1,0,-1
15:38:14.165084,2,0,1,4,-3,-1,-1,1
15:38:14.180075,0,-5,-2,7,8,2,-5,-2
15:38:14.188073,-3,0,0,-17,-17,-4,-1,-1
15:38:14.195068,0,-2,0,-1,-1,0,-4,-1
15:38:14.203064,-1,1,0,7,-1,1,0,3
15:38:14.218051,0,-2,-1,3,5,0,3,0
15:38:14.225050,0,0,2,-1,-3,-3,0,0
15:38:14.240041,-1,0,-3,-2,-2,0,-1,-2
15:38:14.248035,-1,-2,-4,-3,-1,-4,-2,-1
15:38:14.263023,1,2,1,2,-1,-5,-1,0
15:38:14.263023,-1,-1,-3,-1,1,1,-2,0
15:38:14.278016,-4,-4,1,-1,-4,-2,-5,-4
15:38:14.285009,2,1,1,-5,-1,0,0,-1
15:38:14.300003,-1,0,-1,-3,-3,-1,-1,-1
15:38:14.307998,-1,-1,2,15,10,2,-6,-2
15:38:14.322986,2,0,-1,-5,-8,-3,-1,0
15:38:14.322986,-3,0,-1,-1,-2,-1,1,1
15:38:14.337979,0,2,-1,-1,-5,-2,-1,-3
15:38:14.344973,2,-1,0,0,1,-1,0,-1
15:38:14.359963,-3,0,-1,2,4,0,1,-1
15:38:14.367959,-1,2,-4,-1,-5,-2,-2,2
15:38:14.382950,-1,-1,-4,2,-1,0,-2,0
15:38:14.382950,0,2,3,-3,-6,-3,0,0
15:38:14.397942,0,-4,-3,-2,4,2,0,-3
15:38:14.404937,0,0,1,-2,-3,-3,1,0
15:38:14.419926,0,-2,-2,1,2,-3,0,-4
15:38:14.427924,2,0,1,0,-2,-3,-4,-1
15:38:14.442912,-1,0,-3,-3,-4,-1,1,-1
15:38:14.443912,3,1,0,-4,-4,-3,-1,-1
15:38:14.457905,0,-1,0,0,4,0,-1,-3
15:38:14.464900,3,-1,1,-3,1,-1,1,-3
15:38:14.479892,-1,1,-1,0,-2,-3,-2,-2
15:38:14.487886,4,0,-1,-3,-2,-3,2,4
15:38:14.502874,-1,-1,-3,-1,1,-5,-15,-5
15:38:14.502874,-3,-3,-2,-3,-9,-6,-2,3
15:38:14.517868,0,-1,-1,-1,-3,0,-5,6
15:38:14.532859,-1,-2,-4,-5,1,2,0,-2
15:38:14.539854,-1,-3,-5,-2,-2,-2,-1,-3
15:38:14.547850,0,0,-3,2,0,0,2,0
15:38:14.562840,-1,0,-3,-2,-3,-3,-2,1
15:38:14.563837,0,0,-3,-2,-6,1,2,-1
15:38:14.577828,-2,-2,0,0,1,-1,-3,0
15:38:14.584825,-1,1,-5,-1,-2,1,-1,-1
15:38:14.599814,-1,1,-4,0,-3,-4,-3,2
15:38:14.607809,0,-3,-2,2,-2,0,-7,-8
15:38:14.622801,0,-4,-2,-3,-2,-3,1,1
15:38:14.622801,-3,-1,-2,-3,-1,-3,-3,-3
15:38:14.637794,8,2,0,-3,-1,1,-1,0
15:38:14.645787,-1,3,-1,-2,0,-1,-2,0
15:38:14.660780,1,-1,-2,-3,2,-1,-3,-1
15:38:14.667775,1,1,0,-1,-3,0,-4,-2
15:38:14.682763,0,-3,-2,2,3,3,0,0
15:38:14.683762,-3,1,-1,-1,-3,-2,0,2
15:38:14.697756,-3,1,-2,-3,-2,-2,-3,1
15:38:14.712747,0,0,2,0,-6,0,1,1
15:38:14.720743,-1,0,-5,2,-1,-2,0,4
15:38:14.727738,1,-1,-2,-1,0,-3,1,-3
15:38:14.742727,-4,1,-1,-1,-1,-1,1,-2
15:38:14.743730,2,1,-1,0,-1,-1,0,0
15:38:14.757719,-2,0,-2,-1,1,-3,-3,-3
15:38:14.765715,1,-2,-2,0,-2,1,0,2
15:38:14.787701,2,0,-2,0,0,-2,-1,4
15:38:14.788698,7,0,0,-5,-3,1,4,2
15:38:14.802691,-1,0,-1,0,2,0,0,0
15:38:14.803691,-2,-4,-2,-3,-3,0,-4,-2
15:38:14.825675,-1,0,-1,0,1,-1,1,-1
15:38:14.825675,-3,1,-1,-2,0,0,-2,-4
15:38:14.840668,1,-3,0,-3,3,4,3,4
15:38:14.847661,-13,-4,-2,-1,-1,-3,-8,-14
15:38:14.862655,2,2,4,1,5,5,11,2
15:38:14.863654,2,-1,-3,-1,0,-1,3,4
15:38:14.877645,-2,-1,-1,-1,-3,2,1,-4
15:38:14.885641,-2,0,-1,-1,-4,1,0,-3
15:38:14.907627,1,-2,-1,1,0,0,1,1
15:38:14.908624,0,0,-2,-1,-2,1,1,0
15:38:14.922614,-3,-2,-3,-3,1,-5,-1,0
15:38:14.923616,1,1,1,2,1,-2,-2,0
15:38:14.945600,1,1,0,-1,-2,-4,1,2
15:38:14.945600,0,-1,4,-5,-1,-4,2,0
15:38:14.960594,-1,2,2,13,-1,-1,0,1
15:38:14.967589,-5,-4,9,2,-5,-3,-3,-4
15:38:14.982580,-3,0,-12,3,-1,-4,-4,-1
15:38:14.983579,-3,3,16,8,4,0,-4,-3
15:38:14.997570,-1,1,-6,-11,-3,4,2,4
15:38:15.005569,2,-1,-6,-34,-9,0,3,0
15:38:15.020557,-8,-5,12,22,-7,-13,-5,-7
15:38:15.027552,0,-5,-58,-128,-89,-6,2,4
15:38:15.042540,-13,-15,-27,17,36,-4,-8,-9
15:38:15.050539,-4,7,21,25,-41,-8,-4,-3
15:38:15.057533,6,12,42,109,-45,19,4,4
15:38:15.065529,2,3,9,-48,28,8,1,5
15:38:15.080520,13,21,7,-82,-128,-1,9,5
15:38:15.087515,11,29,104,127,127,58,6,3
15:38:15.102506,-3,-20,6,-24,-59,-35,-2,0
15:38:15.103502,16,7,-53,-31,-83,16,12,12
15:38:15.117493,-32,-28,33,106,127,-46,-25,-28
15:38:15.125490,31,57,55,37,127,127,32,20
15:38:15.140479,1,-15,37,-81,-128,-128,-12,8
15:38:15.147475,-7,-36,-86,-41,127,107,15,-5
15:38:15.162465,39,63,-92,-128,-128,-128,-12,14
15:38:15.170462,-55,-106,-12,127,-65,-45,-43,-39
15:38:15.185452,-22,54,127,127,-128,47,7,-17
15:38:15.185452,35,19,62,127,-128,-42,15,20
15:38:15.200444,-20,-34,-88,0,127,-13,-17,-3
15:38:15.207441,21,1,-41,76,-22,19,19,15
15:38:15.222428,54,127,47,-49,-128,58,29,23
15:38:15.230426,-61,-87,-28,127,127,34,-47,-55
15:38:15.245414,-16,-7,-8,-1,127,-35,-25,-20
15:38:15.245414,6,20,71,-5,30,27,5,-1
15:38:15.267403,32,74,55,-128,-58,19,20,20
15:38:15.268402,-41,-62,-30,127,127,8,-29,-23
15:38:15.282391,8,17,44,127,-2,2,15,-47
15:38:15.290386,58,50,10,-128,-128,4,50,108
15:38:15.305377,-82,-128,-126,-46,-128,-81,-42,-62
15:38:15.305377,8,53,101,127,127,46,4,-6
15:38:15.320371,-45,-88,-56,5,-128,-77,-11,-16
15:38:15.327366,-7,-13,-35,61,-102,11,-4,-6
15:38:15.342356,93,127,127,127,127,48,14,19
15:38:15.350352,-59,-97,-127,48,-17,-57,-20,-16
15:38:15.365342,-87,-128,-50,44,-60,-4,-19,-38
15:38:15.365342,35,54,112,127,127,127,38,32
15:38:15.380331,30,29,-72,-128,-99,-128,-18,14
15:38:15.387326,-33,-128,-63,127,87,26,9,11
15:38:15.402317,-70,-128,-86,127,127,-15,-16,-25
15:38:15.410315,81,127,83,-90,34,-8,10,24
15:38:15.425308,20,39,127,127,127,101,13,14
15:38:15.426305,0,-32,-59,-113,127,-40,-7,0
15:38:15.440296,33,45,55,127,68,7,4,10
15:38:15.447291,10,25,30,127,-27,-7,3,4
15:38:15.462282,7,-4,-35,-128,-128,-43,2,-1
15:38:15.470278,-12,-8,-27,-90,-101,-25,-7,-10
15:38:15.477272,4,25,-6,19,-13,-7,-2,-7
15:38:15.485268,-16,-45,-128,-128,12,25,-5,-4
15:38:15.500259,-2,65,112,11,-128,-27,-18,-20
15:38:15.507254,-23,-51,7,127,-79,-1,4,0
15:38:15.523245,2,-5,8,127,127,34,1,-2
15:38:15.530240,35,75,31,-104,-128,-63,3,12
15:38:15.537236,-24,-47,-52,-49,17,1,-4,-5
15:38:15.545231,18,31,50,96,127,28,7,11
15:38:15.560219,0,-11,-27,-94,51,-15,0,2
15:38:15.575213,-35,-70,-66,-7,0,-3,-2,-10
15:38:15.576211,-17,-16,-38,109,102,18,-11,-14
15:38:15.590203,-17,-37,-23,-32,-128,-12,0,-4
15:38:15.598198,12,28,1,-99,-104,-72,-8,-5
15:38:15.605194,-20,-46,-30,29,23,-54,-3,-4
15:38:15.628177,-2,-5,4,32,-33,14,-4,0
15:38:15.628177,22,34,17,52,127,-1,4,6
15:38:15.635175,-16,-7,-29,-128,-128,-19,-11,-10
15:38:15.650165,-9,1,-19,30,88,48,-1,-12
15:38:15.657159,21,16,47,123,-104,15,11,12
15:38:15.665157,16,21,19,6,-28,-5,8,8
15:38:15.680144,-18,-44,-62,106,127,45,1,0
15:38:15.688139,-1,12,22,122,127,39,-3,-4
15:38:15.703136,7,9,42,-61,-128,-19,2,5
15:38:15.710125,2,0,28,-58,-128,-126,-8,-2
15:38:15.718121,-12,-3,-34,-111,-38,26,0,3
15:38:15.725118,-1,-16,-20,27,-95,-41,-4,-1
15:38:15.740110,14,11,24,127,127,117,15,14
15:38:15.748105,15,25,-2,-100,123,29,3,2
15:38:15.763096,-25,-45,-36,42,68,17,-11,-14
15:38:15.770092,11,6,39,45,-105,-10,8,9
15:38:15.785082,-1,-1,-15,-63,-47,-14,-1,-2
15:38:15.786083,17,20,2,35,-128,-38,0,4
15:38:15.800073,0,6,10,-67,-128,-40,-9,-10
15:38:15.807069,-9,-25,-26,31,59,30,0,-4
15:38:15.823060,34,57,69,122,127,5,8,15
15:38:15.830054,9,23,7,-33,48,-7,-1,0
15:38:15.838046,-14,-22,11,110,127,46,0,-4
15:38:15.845042,17,30,58,100,88,-8,3,7
15:38:15.860033,-7,-16,-24,-32,-128,-40,-6,-5
15:38:15.868029,-12,-11,23,23,60,-10,-4,-7
15:38:15.883018,5,-1,-4,81,-128,-77,-3,0
15:38:15.890014,19,30,16,-85,38,-10,-1,5
15:38:15.898009,9,16,17,-46,117,19,0,0
15:38:15.905010,-6,-1,-12,-10,20,3,-4,-8
15:38:15.919996,-20,-41,-47,-52,-27,-5,-7,-7
15:38:15.934987,17,36,100,105,-86,16,6,3
15:38:15.942981,-4,-7,10,127,88,16,2,-1
15:38:15.949980,5,8,-32,-104,-48,-1,0,2
15:38:15.957972,0,1,-22,-90,113,1,1,-1
15:38:15.964971,-6,-11,-55,-67,30,8,-3,-5
15:38:15.987953,0,-3,-24,-54,-13,0,-3,-3
15:38:15.987953,1,6,-11,-128,0,-6,-2,-1
15:38:16.002945,-36,-27,55,120,-102,2,-16,-23
15:38:16.009940,3,0,-41,-128,11,12,4,0
15:38:16.017938,-7,-18,-24,0,69,24,-5,-3
15:38:16.024931,-6,-3,-25,-73,-38,-5,-2,-4
15:38:16.039925,3,-2,-15,-38,-45,-9,1,-1
15:38:16.047917,0,-5,8,78,-1,-8,-2,-1
15:38:16.062907,-2,-2,-14,-38,-1,3,-4,-7
15:38:16.069902,4,2,-17,-89,-19,2,1,1
15:38:16.077898,-10,-17,-17,97,127,29,-4,-6
15:38:16.099884,-5,-5,-3,92,-38,-20,-5,-4
15:38:16.100883,-6,-6,-13,-14,70,12,0,-3
15:38:16.107881,-2,0,-2,-39,-18,-2,0,-1
15:38:16.122873,7,5,-12,-14,-20,-6,-1,3
15:38:16.130867,-14,-15,-14,77,64,-8,-6,-6
15:38:16.137863,0,5,15,29,27,14,3,0
15:38:16.152854,4,1,-31,-44,0,-15,-2,2
15:38:16.159847,-6,-5,-19,-41,-24,-3,-5,-6
15:38:16.167845,7,9,37,93,4,9,4,5
15:38:16.182835,-1,-1,37,127,104,20,5,-2
15:38:16.189829,3,3,-15,-39,-39,-12,0,0
15:38:16.197826,3,3,7,27,127,32,3,5
15:38:16.212817,0,-1,-8,-65,-128,-33,-1,1
15:38:16.220812,-4,-3,2,-3,1,-6,-2,-3
15:38:16.227807,-2,1,-1,-10,-22,-1,-20,9
15:38:16.242798,-4,-2,-4,-7,-10,-14,-13,-10
15:38:16.249792,-12,-2,-1,5,6,-14,-53,-25
15:38:16.265784,6,-3,-1,-1,-9,3,39,32
15:38:16.272780,11,3,4,7,9,-12,27,-9
15:38:16.280772,-5,-12,9,7,20,19,-24,127
15:38:16.287771,1,-2,-9,-9,-13,-29,127,2
15:38:16.302761,-115,-20,-17,-15,-11,31,127,-52
15:38:16.309753,127,25,12,15,36,49,-128,91
15:38:16.317752,-109,-42,-45,-40,-82,-86,127,-128
15:38:16.332742,-10,24,49,47,72,127,-59,127
15:38:16.339738,1,8,-10,-13,-21,30,-128,-128
15:38:16.347733,-123,-27,1,3,20,-28,-128,-20
15:38:16.362724,67,22,-8,-9,-34,-30,127,34
15:38:16.369716,-50,-2,6,10,3,10,42,-99
15:38:16.377714,38,-15,-30,-106,-128,-14,-28,4
15:38:16.399701,-22,-4,45,127,127,42,-36,-2
15:38:16.400700,0,-2,-16,-128,-79,-8,-30,7
15:38:16.407696,5,-20,11,-113,-128,-21,3,18
15:38:16.422684,73,-3,48,127,127,51,13,37
15:38:16.430679,-12,20,30,-63,-31,11,-2,-18
15:38:16.437678,-64,35,3,34,-128,-62,-20,-35
15:38:16.460669,127,-40,-14,-5,127,56,11,13
15:38:16.467659,127,-18,30,21,127,-22,-103,66
15:38:16.468657,-102,-19,2,-5,-76,-35,112,-53
15:38:16.482650,-12,-26,-57,-67,-22,3,-28,-40
15:38:16.489644,127,-6,47,15,112,0,-31,85
15:38:16.505636,127,-31,-4,23,29,73,35,-33
15:38:16.512631,-78,6,-31,-128,-107,116,127,67
15:38:16.527622,127,8,3,127,3,21,-114,78
15:38:16.528621,-33,-10,-15,-42,-128,-37,-37,-89
15:38:16.542612,47,-18,-17,-14,35,4,-128,50
15:38:16.550607,-6,4,-10,23,-19,24,86,-43
15:38:16.572594,-35,1,-2,-101,-41,-21,19,-66
15:38:16.573593,127,22,86,127,-34,-24,-8,48
15:38:16.587585,-20,-5,1,90,69,6,-16,-18
15:38:16.588588,-10,3,20,-76,-128,8,-2,6
15:38:16.602575,12,-4,-33,-28,-70,-19,4,4
15:38:16.610570,-28,2,53,127,-105,2,-40,-15
15:38:16.625562,-30,43,5,62,-11,0,30,-10
15:38:16.632557,-27,7,-43,-2,-34,-36,-10,-1
15:38:16.655540,28,24,46,59,112,51,55,81
15:38:16.655540,4,8,-19,-61,127,35,44,12
15:38:16.662538,3,-7,16,-66,-128,-52,25,1
15:38:16.670533,-59,-24,-120,-128,-128,-30,-24,-43
15:38:16.685524,17,-27,52,100,126,29,31,17
15:38:16.692517,9,8,29,-27,-64,92,127,-4
15:38:16.707507,1,7,-33,-12,-128,-26,-18,-19
15:38:16.708507,-31,-13,16,65,-48,-6,-41,-26
15:38:16.722501,6,4,-20,15,-126,10,28,1
15:38:16.730494,4,-11,7,12,-123,0,-2,-15
15:38:16.745487,1,-4,-4,26,105,-3,-30,26
15:38:16.752479,-10,-3,-77,-128,-98,-16,-10,-22
15:38:16.767470,47,2,31,0,-41,17,48,62
15:38:16.768472,-40,6,5,-23,-78,12,61,-17
15:38:16.782463,-29,6,-9,-51,-128,-19,-9,-7
15:38:16.790458,3,6,21,-128,28,40,34,65
15:38:16.805449,11,5,-7,18,18,13,14,1
15:38:16.812444,4,7,9,32,4,-45,-28,-30
15:38:16.827436,14,-13,4,87,37,-18,-12,7
15:38:16.828435,6,13,6,-7,39,-4,-9,-11
15:38:16.842425,-6,-7,-34,-128,-128,-29,-15,-8
15:38:16.850421,9,6,13,24,111,43,20,-20
15:38:16.865412,18,9,-20,34,13,28,10,15
15:38:16.872407,-8,2,27,101,56,17,2,-4
15:38:16.887398,-10,1,13,-4,0,8,1,14
15:38:16.888398,-2,-2,6,36,3,-5,-11,-11
15:38:16.902389,-4,1,-33,-102,-119,0,8,1
15:38:16.910385,-16,-7,34,127,127,31,35,39
15:38:16.925374,0,-1,-1,34,-31,-17,-12,-8
15:38:16.932370,-7,-1,-15,-12,83,25,11,6
15:38:16.947361,0,7,5,-2,-83,-14,-9,-4
15:38:16.948361,-6,-3,-6,17,24,-3,-7,-4
15:38:16.963351,3,8,2,0,4,4,-14,27
15:38:16.970347,1,2,2,-4,-3,28,-33,-16
15:38:16.985338,-7,-1,-2,-47,-107,-11,-5,-9
15:38:16.992333,0,1,-1,17,40,-1,-8,-11
15:38:17.007324,-29,-1,-2,-99,-49,-13,-5,-9
15:38:17.008321,-8,2,4,-62,-79,-12,-15,0
15:38:17.030312,-8,-11,-9,-95,-18,-3,-18,-26
15:38:17.031309,4,3,3,26,6,-2,-1,4
15:38:17.045300,-1,1,1,-6,-4,4,-9,-7
15:38:17.052294,-4,-5,0,24,-18,-16,-26,-6
15:38:17.068286,-7,-6,-4,15,29,-3,-3,-5
15:38:17.075282,1,-1,-3,-7,11,4,1,1
15:38:17.090273,7,0,-6,-101,-117,9,58,13
15:38:17.091271,-9,-5,-2,27,27,-4,-9,-11
15:38:17.105263,0,5,2,-57,-77,2,6,9
15:38:17.113259,-7,-5,-2,7,25,1,2,-11
15:38:17.127249,1,3,3,-104,-128,-10,-4,6
15:38:17.135245,-8,-3,-2,15,30,-4,11,5
15:38:17.150236,-3,-1,2,-1,1,-12,-5,-5
15:38:17.150236,0,-2,2,-1,-15,4,3,3
15:38:17.165226,-3,0,-1,-5,2,2,-8,-9
15:38:17.172221,-4,2,1,1,58,-1,-3,-3
15:38:17.188214,-5,-6,-4,76,23,1,-4,-6
15:38:17.195207,1,1,-3,-35,-8,-2,2,2
15:38:17.210199,-4,1,2,13,3,-2,-5,-3
15:38:17.211198,-1,-3,-3,-4,-4,-4,-1,1
15:38:17.225189,0,-1,-1,0,-2,-2,1,0
15:38:17.232182,-2,-1,-1,0,-1,-1,0,0
15:38:17.248175,-2,0,-1,-3,-5,-1,-2,-4
15:38:17.255170,-3,0,-2,0,0,-1,-1,2
15:38:17.270161,3,1,-2,-2,3,0,-1,1
15:38:17.271160,2,-1,-2,0,1,-2,-2,0
15:38:17.285151,2,-2,-3,-2,0,-4,-1,-2
15:38:17.293144,-4,-5,-5,2,-14,0,-2,0
15:38:17.308135,-4,-4,2,4,6,-2,-4,-4
15:38:17.315133,-6,-5,-3,-6,0,1,0,-2
15:38:17.330124,2,1,0,3,4,4,2,4
15:38:17.331127,1,0,0,0,0,-1,-2,-1
15:38:17.345115,0,-3,1,0,-3,0,0,-3
15:38:17.360103,0,-3,0,1,4,3,2,2
15:38:17.367100,3,2,1,2,4,1,1,2
15:38:17.375096,-2,2,-1,-5,-4,-1,-1,-2
15:38:17.390087,2,2,1,-2,-1,1,-7,2
15:38:17.391087,1,-1,-3,-3,-11,-2,1,0
15:38:17.413070,-1,-3,2,8,1,2,-7,-1
15:38:17.413070,-1,-1,-3,1,0,7,4,3
15:38:17.428063,-1,-1,0,-3,-1,-4,-1,-2
15:38:17.435057,-5,0,0,-1,-2,-3,0,-3
15:38:17.450047,-2,1,0,1,-4,-1,-1,-3
15:38:17.451047,0,-3,0,0,-1,-1,-3,-1
15:38:17.465040,-1,1,1,0,-3,0,0,-3
15:38:17.473038,-1,1,1,-1,2,2,1,-2
15:38:17.488026,-1,-2,-4,-1,-1,-2,-1,2
15:38:17.495021,0,0,0,0,0,-2,-3,-1
15:38:17.510013,0,-3,0,1,1,-2,0,1
15:38:17.511012,4,2,0,2,-1,0,1,0
15:38:17.525002,-3,-2,-3,0,-1,0,-1,0
15:38:17.532997,2,-2,-2,-1,-6,-4,-3,3
15:38:17.547989,-2,0,-2,-4,-2,-4,2,-1
15:38:17.554990,-1,-2,-2,-2,-2,-1,-3,0
15:38:17.569975,-2,-3,0,-3,0,1,1,-3
15:38:17.570974,1,-1,0,-3,2,0,-4,-1
15:38:17.584966,-1,-1,0,-1,0,0,4,-1
15:38:17.592959,3,-1,-2,0,2,1,3,2
15:38:17.607949,3,-1,1,0,1,2,-2,0
15:38:17.614944,0,3,-3,-2,-2,-1,-1,-1
15:38:17.629938,-3,-4,-1,-2,-2,-1,0,-3
15:38:17.630937,-6,-2,-3,-1,-3,-3,-1,-6
15:38:17.644928,-6,0,-1,0,-2,-2,-1,-3
15:38:17.652924,-3,1,0,-2,0,0,-2,-2
15:38:17.667915,-1,-1,-3,-2,-2,-3,-4,0
15:38:17.682905,2,2,1,1,4,3,-1,1
15:38:17.689901,1,-3,-2,-2,-5,1,-1,-3
15:38:17.690899,3,-2,-1,-3,1,-1,0,-1
15:38:17.704891,-2,-2,0,-1,-3,-6,-4,1
15:38:17.712887,0,-1,1,-4,-4,-2,-3,-1
15:38:17.727877,-3,-1,-4,-2,0,-1,-3,-2
15:38:17.734870,1,-2,-1,-3,-3,-3,-2,-3
15:38:17.749863,-1,-1,-2,-2,2,-3,-3,-3
15:38:17.750863,1,-1,-1,0,-2,-1,1,-1
15:38:17.764852,3,-1,2,0,2,4,1,0
15:38:17.772849,-1,3,1,1,-2,-2,0,-2
15:38:17.787840,-2,-1,1,-2,0,-3,-2,1
15:38:17.795835,-3,-3,-1,0,1,2,1,1
15:38:17.809826,0,-3,2,0,0,-1,0,-2
15:38:17.810826,-4,3,-1,-1,2,1,-1,0
15:38:17.824815,-4,-1,-4,-4,-6,-4,-1,-4
15:38:17.832810,2,1,-5,-2,0,-4,0,-1
15:38:17.847801,-1,0,1,1,-2,-5,-1,-3
15:38:17.854797,2,0,1,1,-1,-1,1,0
15:38:17.877782,-1,-2,-2,-1,-2,2,0,-2
15:38:17.878781,1,0,-1,0,-1,-2,-1,-3
15:38:17.884779,-2,1,1,0,0,-1,-1,0
15:38:17.892775,-1,1,2,-2,-1,0,1,-1
15:38:17.907766,1,2,-1,2,0,-1,-1,0
15:38:17.914761,0,1,-1,-1,-3,-1,-1,2
15:38:17.929749,-3,-1,-1,1,-1,1,-1,-1
15:38:17.930751,0,-1,-2,-3,1,-2,-1,-4
15:38:17.945739,-3,0,0,0,-2,0,3,3
15:38:17.952735,-2,-1,1,-2,-1,-1,-3,-4
15:38:17.967726,-2,-3,0,-3,-2,-4,-4,0
15:38:17.974722,1,-1,3,0,6,4,1,0
15:38:17.990712,-1,-1,-1,2,-3,1,-1,-2
15:38:17.997707,-3,-3,2,-1,-4,-1,-4,1
15:38:18.012701,-2,0,2,-2,-4,-5,0,3
15:38:18.013700,2,-2,-2,2,-1,-1,-2,2
15:38:18.027692,-4,0,-1,0,-1,-4,0,-1
15:38:18.035685,3,1,-1,-1,-2,2,-2,-1
15:38:18.050677,-2,-2,-1,0,1,-1,-2,-3
15:38:18.057670,0,-3,-1,-2,-3,0,1,2
15:38:18.072661,2,-1,0,1,3,-3,0,1
15:38:18.073661,-2,-1,0,-1,-2,-3,2,-3
15:38:18.095649,0,1,-1,-3,-3,-3,-2,-2
15:38:18.095649,-1,0,1,1,-3,-2,-1,-1
15:38:18.110640,-1,-3,0,-2,-2,-1,0,0
15:38:18.117635,0,-2,0,-1,0,-2,-3,-3
15:38:18.132626,-1,-1,-2,0,1,2,-2,-5
15:38:18.133628,0,0,-2,-1,-4,-6,-2,-3
15:38:18.147617,1,0,1,0,-2,-2,-2,0
15:38:18.155612,2,-1,0,0,-3,-1,0,0
15:38:18.170603,0,-3,2,0,1,-1,-1,-1
15:38:18.177598,-3,-1,1,0,0,-4,2,-2
15:38:18.192587,-1,0,-2,-4,-3,1,0,-1
15:38:18.193586,-3,-3,-1,-3,-2,-3,-6,-2
15:38:18.207580,2,0,-1,-1,1,-2,1,1
15:38:18.215575,1,-3,2,0,-1,0,1,-1
15:38:18.230566,0,1,0,1,-1,0,-1,0
15:38:18.237561,3,-1,-1,-1,3,1,2,2
15:38:18.252552,-5,-1,-1,-1,-9,-3,-3,-4
15:38:18.253548,1,0,2,-1,0,-1,0,-1
15:38:18.267542,2,5,4,8,9,4,5,6
15:38:18.275535,-6,-1,-1,-4,-3,0,0,-2
15:38:18.290528,1,-1,-2,-4,1,-6,0,2
15:38:18.297524,0,-1,0,0,2,1,1,-2
15:38:18.312515,-1,-1,0,0,0,-3,0,-2
15:38:18.313515,2,-1,-1,-1,-1,-1,0,-2
15:38:18.327505,0,1,1,1,1,2,-3,0
15:38:18.335500,-1,-1,-3,-2,0,-1,2,1
15:38:18.350496,-5,-4,-1,0,3,2,0,-4
15:38:18.357486,-2,-3,0,1,-2,-3,-2,-2
15:38:18.372477,-2,-1,-1,-2,-1,-1,0,0
15:38:18.380473,-1,-1,-3,-4,0,2,2,-2
15:38:18.387468,-5,-2,-3,-3,0,-1,0,-1
15:38:18.395463,0,1,2,2,0,-3,0,-1
15:38:18.410454,0,1,-1,-2,0,-1,1,0
15:38:18.417449,0,-1,0,0,0,-4,-2,2
15:38:18.432440,1,0,-3,-3,-3,-3,3,3
15:38:18.440435,0,-5,-1,-1,1,1,-3,-2
15:38:18.447431,1,2,0,0,4,3,1,-1
15:38:18.455426,-1,0,-2,1,1,2,-1,3
15:38:18.470417,1,0,-1,2,-2,-2,-1,0
15:38:18.477412,1,-3,-1,-2,0,-3,-3,0
15:38:18.492402,-1,1,-1,2,-2,-2,0,-1
15:38:18.500398,0,-2,0,-1,-1,-1,0,-3
15:38:18.507393,2,0,0,4,-1,-1,1,3
15:38:18.515387,-3,-3,0,0,-3,-1,-4,-3
15:38:18.530377,1,2,-2,4,2,-3,-2,2
15:38:18.537375,-2,-3,-1,-2,-2,-1,-2,-2
15:38:18.554363,1,1,0,-2,-1,1,-3,-1
15:38:18.560358,0,-4,0,-3,-2,-2,-1,-4
15:38:18.567353,-1,2,0,-1,-2,1,-1,-2
15:38:18.575348,-2,0,1,4,-2,-1,-1,0
15:38:18.590341,-2,-2,-2,1,-2,-1,2,-2
15:38:18.605331,-4,-1,-2,-2,0,-2,-4,-4
15:38:18.612327,2,4,2,2,-1,-2,1,3
15:38:18.613327,-2,-1,1,1,1,-1,1,-1
15:38:18.627317,0,1,0,0,-2,1,4,-2
15:38:18.635313,-1,0,-1,0,1,-3,-2,-2
15:38:18.650303,0,1,2,0,-1,-3,0,-3
15:38:18.657297,-5,-1,-3,-1,0,-1,-1,-1
15:38:18.672290,1,0,-3,-3,1,-3,-3,0
15:38:18.673289,-2,-1,-1,0,0,-2,-1,-1
15:38:18.688280,-1,-2,-2,-2,0,1,3,0
15:38:18.695274,1,1,-1,-2,0,0,-2,-2
15:38:18.710267,-1,-2,1,-3,-2,-1,-1,-1
15:38:18.717261,-5,0,-2,-1,-2,-3,-1,-2
15:38:18.732253,-1,0,0,0,0,0,-1,1
15:38:18.733253,2,1,-3,-2,-2,0,0,2
15:38:18.747243,-1,-1,0,1,1,-3,1,-2
15:38:18.755236,-4,-2,-1,-1,0,-2,1,1
15:38:18.770229,-1,0,-3,-1,-4,0,0,-3
15:38:18.777223,0,1,-2,-1,-3,-1,-3,-2
15:38:18.792216,0,0,-1,0,2,1,-1,0
15:38:18.793214,-3,0,1,1,-2,-6,0,1
15:38:18.807204,1,-1,-1,-4,0,-3,0,0
15:38:18.815199,1,-1,3,3,2,1,-1,1
15:38:18.830192,1,1,0,-1,-3,-5,0,0
15:38:18.837188,-2,0,0,0,-2,-2,0,0
15:38:18.852178,-3,-1,3,-2,1,-2,0,-2
15:38:18.853178,0,-1,-5,-2,1,-1,-1,0
15:38:18.867180,1,-2,0,1,0,0,-4,-3
15:38:18.875164,-1,-2,0,0,-3,1,0,0
15:38:18.890155,-4,-3,-1,-2,-4,-3,1,1
15:38:18.897150,-1,0,0,-1,1,-1,0,0
15:38:18.912158,-3,-3,-5,-2,-3,-1,-1,0
15:38:18.920136,2,-1,3,0,0,0,5,1
15:38:18.935127,-2,-3,-3,-2,1,-2,0,-1
15:38:18.935127,1,-3,1,-3,-3,1,-2,-2
15:38:18.950118,-1,1,2,1,-1,-1,0,-3
15:38:18.957115,0,-3,-2,0,0,-1,-1,-1
15:38:18.972109,-1,-2,-2,0,4,-2,-3,0
15:38:18.980100,1,0,-2,-3,-4,-2,-2,-3
15:38:18.995090,-1,-3,-1,0,0,1,0,-2
15:38:18.995090,-1,1,-1,-1,-4,-3,-4,-5
15:38:19.010080,-2,0,2,1,-1,0,-4,0
15:38:19.017077,-2,-1,1,-2,-3,-4,2,-1
15:38:19.032068,1,-2,1,1,2,4,-3,0
15:38:19.040062,-2,-3,0,1,0,-5,-2,0
15:38:19.055052,1,-3,-3,-1,0,1,-1,-2
15:38:19.055052,0,-4,-1,-1,1,2,-4,-5
15:38:19.070043,1,0,-2,-1,-1,-4,-2,-3
15:38:19.078037,-3,-3,-2,-1,-3,-3,-5,-3
15:38:19.093028,-4,-1,-2,-3,0,2,4,3
15:38:19.100025,-5,-3,0,0,0,4,-2,-3
15:38:19.115015,0,-2,-3,-1,0,-4,-3,-2
15:38:19.116014,-1,-1,-1,0,-3,-4,-2,-2
15:38:19.130008,-3,-6,-1,-4,-4,-2,-4,-2
15:38:19.138003,-1,-1,-1,0,-5,-2,1,0
15:38:19.152993,-3,-2,-1,0,0,-1,-2,-4
15:38:19.160987,-2,-1,-2,0,1,1,2,3
15:38:19.176976,0,0,1,-1,-2,0,2,2
15:38:19.177976,-1,0,-1,1,-1,-2,0,-1
15:38:19.189969,-2,-3,-2,-1,-4,-3,-3,0
15:38:19.197966,-5,1,0,-1,1,1,-2,-1
15:38:19.212955,-1,-1,-1,-1,-3,0,1,0
15:38:19.219950,-1,0,-1,5,-3,-3,1,-1
15:38:19.242935,1,0,-2,-2,-1,-1,-4,-1
15:38:19.243935,1,0,-2,1,1,-1,2,1
15:38:19.249933,-1,-2,-3,1,1,1,-2,-1
15:38:19.257925,2,1,-1,0,-2,-3,-2,0
15:38:19.272919,-1,-1,-2,0,0,2,-1,-1
15:38:19.279912,1,-1,-1,0,2,-2,-3,-1
15:38:19.295903,1,-1,-2,-1,-3,0,-4,0
15:38:19.295903,2,0,0,-1,-4,-2,0,-3
15:38:19.310893,-1,3,-4,-5,2,0,0,-1
15:38:19.317892,-2,-1,1,-3,-2,-6,-1,-3
15:38:19.332885,-1,0,0,-1,-3,-1,1,-1
15:38:19.339879,1,2,-1,0,-3,-2,-1,-1
15:38:19.354867,1,-1,0,3,2,-2,1,0
15:38:19.355865,-2,-2,0,-6,0,1,1,0
15:38:19.370857,-3,-2,-1,0,-6,0,1,0
15:38:19.377854,0,-1,-2,-1,3,1,0,4
15:38:19.392844,0,-1,-2,-1,-1,-1,-1,-2
15:38:19.399837,1,1,2,0,0,-3,-2,-1
15:38:19.414829,-2,-3,-1,0,2,-1,-1,0
15:38:19.415828,-4,-4,-4,-2,-4,-1,-1,-8
15:38:19.430818,0,-1,-1,-1,-1,-1,2,-3
15:38:19.437814,-5,2,-2,-1,-3,-2,-3,-3
15:38:19.452808,-3,-1,-2,2,-1,1,-2,-4
15:38:19.459802,1,-2,1,0,2,1,0,0
15:38:19.474792,-1,0,-1,0,-4,-3,-1,1
15:38:19.475791,-3,-1,-4,-2,-4,-1,-2,-3
15:38:19.489783,0,-2,-5,-3,-1,-1,0,-2
15:38:19.497779,1,1,0,0,5,3,1,1
15:38:19.512770,2,-3,-1,-1,-2,-1,-1,2
15:38:19.519764,0,-1,1,1,1,-2,-2,-3
15:38:19.535753,-5,0,0,-3,-2,0,0,0
15:38:19.535753,1,-1,-2,-1,-3,0,1,1
15:38:19.549746,0,0,0,0,2,0,0,-1
15:38:19.565734,-1,3,-2,1,3,2,2,3
15:38:19.572731,1,-2,1,-2,-2,0,0,0
15:38:19.580725,-1,0,1,0,-2,-3,-2,1
15:38:19.595716,0,-2,1,4,2,0,4,0
15:38:19.595716,1,0,0,0,1,1,-2,0
15:38:19.610707,-1,-1,2,-1,0,-3,-3,-1
15:38:19.617705,-3,-2,-2,-3,2,-3,2,-3
15:38:19.632693,1,-1,-1,1,1,0,-2,1
15:38:19.639691,-2,-2,0,-1,0,3,-1,1
15:38:19.662678,-1,1,1,-2,0,1,-2,-3
15:38:19.663676,1,0,2,1,1,-1,-1,-3
15:38:19.670672,0,-1,1,2,2,3,1,-2
15:38:19.677668,2,1,-3,2,4,-1,-1,3
15:38:19.692659,-1,-2,-3,-3,0,-4,0,-5
15:38:19.699656,-3,2,-1,2,-1,-3,-3,-3
15:38:19.715644,-3,1,1,-3,-3,-1,0,-4
15:38:19.715644,-2,-1,-3,-4,-4,-3,-3,1
15:38:19.733634,0,-3,-4,-1,2,2,-4,-3
15:38:19.737628,0,2,2,0,0,1,-2,0
15:38:19.752618,-1,0,1,-2,-1,-1,0,-1
15:38:19.759616,-1,-2,-1,-1,0,-1,-2,-2
15:38:19.774604,-1,-4,-1,-1,-2,0,0,-1
15:38:19.782601,0,1,0,0,-1,0,0,-2
15:38:19.792594,0,-1,-3,0,-2,-1,0,-5
15:38:19.797590,2,0,0,0,3,3,1,-2
15:38:19.812581,1,-1,-3,-2,-1,-1,-2,-2
15:38:19.819578,-2,1,0,0,-4,0,-2,-3
15:38:19.834569,-1,-1,-1,-2,-2,-3,-1,0
15:38:19.840564,-2,0,1,-2,-3,-2,1,1
15:38:19.849561,1,0,-2,0,-3,-2,0,1
15:38:19.857560,2,2,-1,0,3,2,0,0
15:38:19.872544,-3,2,-4,2,-1,-2,0,0
15:38:19.879543,0,-1,3,-1,-2,2,0,-3
15:38:19.895529,0,-1,-1,0,1,-2,-5,-2
15:38:19.902526,-2,0,-1,-1,0,-1,-3,0
15:38:19.917525,0,1,-1,2,-2,-1,1,-4
15:38:19.917525,-2,1,1,1,6,3,1,3
15:38:19.932508,0,-4,-2,-2,-3,-1,-4,-2
15:38:19.940505,0,-2,-2,-1,-1,-1,0,-6
15:38:19.955495,-1,-1,-2,-1,0,-3,2,-1
15:38:19.962491,0,-1,2,-2,-2,-1,-3,-3
15:38:19.977482,-2,0,-2,-1,1,-2,2,0
15:38:19.978479,-1,4,1,1,3,1,-1,0
15:38:19.992471,-2,-1,0,1,1,0,0,-1
15:38:20.000467,1,1,2,4,5,4,3,5
15:38:20.015458,-1,-2,-2,-2,-4,-3,-2,-2
15:38:20.022454,-1,1,0,1,-1,-4,-1,1
15:38:20.037445,-2,-1,-3,-2,-6,-2,-2,-4
15:38:20.038444,-1,0,-1,-1,1,-1,-1,-1
15:38:20.052434,-2,0,-1,0,-2,-3,-1,-3
15:38:20.060431,1,-2,-3,2,-4,1,-2,-1
15:38:20.075421,-1,1,-6,-2,-4,-3,0,-3
15:38:20.082416,4,1,2,3,-1,2,1,1
15:38:20.097405,0,-1,-2,0,2,-2,-3,-1
15:38:20.098404,0,1,-3,-2,0,-3,-2,-3
15:38:20.112396,1,-1,-1,-2,-3,1,-1,1
15:38:20.120390,-1,0,-5,1,-1,-1,-2,-1
15:38:20.135381,3,3,0,2,4,3,0,0
15:38:20.150372,-1,-2,1,-1,-1,-3,-3,-1
15:38:20.158367,-3,-1,-1,0,-2,0,1,-1
15:38:20.158367,-3,1,-3,-3,1,-3,-1,-4
15:38:20.180354,0,-1,-1,-2,2,3,-2,0
15:38:20.181355,-6,0,0,-1,-1,-3,0,-3
15:38:20.195345,-3,-5,-4,-1,-2,3,-2,-4
15:38:20.202342,1,0,-1,1,0,-3,-1,-1
15:38:20.217331,1,-1,-1,-3,-4,0,-4,-3
15:38:20.218330,-2,0,-2,-1,-2,0,-1,-3
15:38:20.232324,-2,-1,2,-4,-4,-2,0,0
15:38:20.240319,-1,-1,0,-5,-3,1,-1,-2
15:38:20.255307,1,3,2,-1,1,-1,-1,1
15:38:20.263302,-2,0,0,0,-3,-2,0,-3
15:38:20.277296,-3,-2,-3,-1,-2,-2,1,-3
15:38:20.278293,-3,-2,-4,-2,-1,0,-3,-2
15:38:20.294290,0,3,-2,-3,-3,-4,-1,1
15:38:20.300282,1,0,2,-1,-1,-3,0,-2
15:38:20.315272,-1,-1,1,-4,-1,2,-1,-2
15:38:20.322266,1,-2,1,0,0,0,0,-2
15:38:20.337258,-3,1,-2,-1,-6,-4,0,-1
15:38:20.338258,-3,-2,-2,1,3,1,-3,1
15:38:20.353255,0,0,-3,-1,-1,-1,-1,-3
15:38:20.360245,2,1,-1,0,-2,-1,0,0
15:38:20.376234,0,-4,-3,-3,0,-1,-1,-1
15:38:20.383227,-1,0,-1,-1,-1,-3,-1,-4
15:38:20.397221,0,-3,0,1,-1,-2,0,-1
15:38:20.398219,1,2,2,1,-3,-2,1,-2
15:38:20.413209,-2,-5,-4,-5,-6,-4,-4,-4
15:38:20.420208,-1,-3,-1,-2,3,-1,0,-2
15:38:20.435198,-1,-2,-2,-1,0,1,-3,-1
15:38:20.443191,1,0,0,-2,0,2,-3,-3
15:38:20.458181,0,-1,0,-2,-1,0,1,2
15:38:20.458181,-4,0,0,-2,0,0,0,-1
15:38:20.473175,0,-2,-2,-4,-1,-3,-1,-3
15:38:20.480171,-2,0,1,-2,-3,-4,0,-1
15:38:20.495158,-3,0,-2,0,0,-1,1,-5
15:38:20.503156,-1,-2,-2,-2,-2,-3,-1,0
15:38:20.518144,-2,-1,-3,-4,-1,-3,-2,-3
15:38:20.518144,-3,-2,0,0,2,-1,0,-1
15:38:20.533134,-2,-3,1,-1,-4,-2,-3,-4
15:38:20.540131,-1,0,0,-2,-2,1,1,-1
15:38:20.555124,-2,2,-1,1,1,-1,1,-2
15:38:20.563118,-3,0,-2,0,-2,0,-1,-2
15:38:20.578111,-3,-1,-3,-3,-4,-2,-2,0
15:38:20.578111,0,3,0,4,5,3,0,3
15:38:20.600093,0,-1,-1,-2,-1,-3,0,0
15:38:20.601094,1,-3,-6,0,-1,3,2,-1
15:38:20.615083,0,-2,-2,-2,-4,0,-1,-3
15:38:20.622087,-1,-5,-2,-3,-2,-1,-4,-4
15:38:20.637070,-1,3,0,0,-2,-2,-3,-2
15:38:20.638070,-3,-2,-1,-15,-9,-2,1,-1
15:38:20.653062,1,-1,0,3,2,0,-1,1
15:38:20.660059,1,3,3,5,8,4,2,5
15:38:20.675047,-2,-2,1,-1,-3,-3,-1,0
15:38:20.683041,-5,-3,-1,-5,-7,-3,-2,-3
15:38:20.698035,-1,0,-3,-2,-2,-2,-1,-2
15:38:20.698035,0,0,1,0,-2,-1,0,1
15:38:20.713026,3,-3,-1,0,-3,1,-1,-2
15:38:20.720022,0,-2,0,-1,-1,1,1,0
15:38:20.735009,-3,1,-4,1,-3,-2,1,0
15:38:20.743005,-3,-1,0,-2,-1,-2,2,-2
15:38:20.757996,0,-1,2,0,3,3,0,0
15:38:20.757996,1,-1,-1,-2,-3,-3,-3,0
15:38:20.772989,0,1,-1,0,0,0,0,1
15:38:20.779984,3,0,3,0,5,3,-1,1
15:38:20.795981,0,-1,-2,1,-3,-4,1,3
15:38:20.809963,-1,0,-3,2,-1,1,-1,-1
15:38:20.817961,-4,0,-3,0,-1,-3,-1,-1
15:38:20.826952,1,-1,0,-1,-1,0,1,0
15:38:20.839947,0,-1,-3,-2,1,-2,-1,-2
15:38:20.840946,1,0,0,0,4,8,5,4
15:38:20.854937,-2,-2,-2,-1,2,-3,1,0
15:38:20.862933,-1,-1,-1,-1,1,-1,0,-1
15:38:20.877921,1,1,-2,1,-4,0,1,-1
15:38:20.884919,0,1,-2,-2,-1,0,0,1
15:38:20.899908,0,2,-1,-1,2,-1,0,-3
15:38:20.900909,-2,-1,2,-3,-1,-3,-1,2
15:38:20.915898,1,-2,1,1,2,1,0,0
15:38:20.922896,-3,-1,-4,-2,1,-1,1,-2
15:38:20.937887,0,0,0,-4,-3,-4,-2,-4
15:38:20.945883,-1,0,-2,0,0,2,0,0
15:38:20.959872,-1,-1,-2,-6,-3,1,-3,-3
15:38:20.960872,-4,-3,2,0,-1,0,0,-4
15:38:20.974861,1,-4,1,-2,0,1,-3,1
15:38:20.982859,-2,-1,-1,-3,1,1,2,-3
15:38:20.997849,-2,2,-2,-1,-1,-1,-3,0
15:38:21.004842,1,3,-2,0,-2,-3,-2,0
15:38:21.019836,-4,0,-1,-1,4,2,2,1
15:38:21.020835,0,0,-1,2,0,-2,0,-1
15:38:21.035824,0,2,0,0,2,4,2,1
15:38:21.042819,-2,0,-5,-1,-1,-1,0,-1
15:38:21.057812,0,1,2,3,1,-2,1,-1
15:38:21.065804,-2,0,0,-3,-4,0,1,-4
15:38:21.080795,-4,-3,1,0,-3,-1,-1,-3
15:38:21.080795,-2,-1,-1,1,-2,-3,1,1
15:38:21.095786,-2,3,-4,1,0,3,5,10
15:38:21.102784,-1,-2,0,-1,0,0,2,4
15:38:21.117772,-1,1,0,-2,-3,-1,-5,5
15:38:21.124768,1,1,0,2,-1,3,1,-1
15:38:21.139759,-2,-3,-5,-3,-1,-1,-3,-6
15:38:21.140759,0,-4,-3,-1,-3,-1,1,-3
15:38:21.154789,-2,-1,1,0,-3,-2,0,-4
15:38:21.162744,-2,-3,-3,-2,2,2,0,-3
15:38:21.177741,-3,-1,0,1,3,-1,-1,0
15:38:21.184733,-4,-2,1,-3,-3,-2,1,2
15:38:21.199721,-1,1,-1,-2,-2,-1,-1,-1
15:38:21.200721,0,-1,-1,0,0,1,-2,-1
15:38:21.214711,0,0,1,4,6,7,2,4
15:38:21.229702,0,-2,-1,1,0,-2,-3,0
15:38:21.236698,2,0,1,-1,-1,-3,0,-1
15:38:21.244693,-3,1,1,-3,-2,-1,-4,-3
15:38:21.262682,0,0,0,1,1,0,0,-1
15:38:21.263681,1,-1,-1,0,0,0,-1,-2
15:38:21.275674,-2,-1,0,3,1,0,-3,0
15:38:21.282669,-1,1,-3,-1,1,-1,1,-1
15:38:21.297660,3,2,0,1,5,-2,1,2
15:38:21.304655,1,-2,-3,-5,-3,-3,-1,-5
15:38:21.319646,0,-1,0,2,-1,-4,-2,-4
15:38:21.320646,-1,-2,1,-3,-4,1,2,0
15:38:21.334638,-1,-6,-3,-2,-1,-2,-1,-1
15:38:21.342633,-1,-1,-3,-1,-1,-3,-2,-1
15:38:21.357623,0,-1,0,-2,-3,-4,0,-1
15:38:21.364621,-1,-1,-1,3,2,2,3,1
15:38:21.379608,-1,-2,-3,-2,1,-2,-1,-4
15:38:21.380608,0,0,-2,0,-1,1,-4,-1
15:38:21.402595,-1,-1,-1,0,2,-2,-1,1
15:38:21.402595,3,-1,0,1,-3,-2,0,-4
15:38:21.417585,-4,-2,-1,2,-4,-1,0,-2
15:38:21.424582,-2,0,-1,-1,1,0,-3,-3
15:38:21.439572,-1,-3,0,-1,-3,0,0,-1
15:38:21.440573,-4,-1,-4,2,-4,-1,-4,-4
15:38:21.454567,-1,0,0,-4,0,-2,-1,-1
15:38:21.462558,1,-2,0,4,1,0,0,2
15:38:21.484551,0,-2,-1,0,-1,0,-1,-4
15:38:21.485543,0,0,-5,-1,-3,-4,-2,1
15:38:21.507529,0,0,-2,0,0,-5,0,2
15:38:21.507529,2,-1,-2,-2,-1,1,-6,-3
15:38:21.514529,0,-2,3,0,0,2,4,0
15:38:21.522522,0,-3,0,-2,-2,-2,-1,-2
15:38:21.537511,0,-2,-1,1,0,-2,1,0
15:38:21.545506,-1,1,0,1,2,2,1,-3
15:38:21.559506,2,-2,0,-3,-2,-3,0,-1
15:38:21.560497,2,0,-3,0,-2,1,2,-1
15:38:21.575488,4,-3,-2,-2,-4,0,0,-1
15:38:21.582484,0,-3,0,2,4,0,-1,0
15:38:21.597474,-3,2,0,0,1,-1,-3,0
15:38:21.604474,0,-1,-1,-3,1,1,1,-1
15:38:21.619463,-2,-3,-1,0,-4,-1,-1,-2
15:38:21.620459,0,1,-2,-1,-2,1,-2,0
15:38:21.635450,-4,0,-2,-1,-1,0,2,0
15:38:21.650442,3,-2,-1,1,0,0,0,0
15:38:21.657440,-3,1,3,-3,0,2,-1,0
15:38:21.665435,-3,-4,-1,-1,-4,-3,-1,-2
15:38:21.680424,1,3,2,1,5,5,2,3
15:38:21.681425,1,-1,-2,8,4,-1,-4,-2
15:38:21.695414,-1,-1,-2,-8,-2,0,0,1
15:38:21.702410,3,3,3,5,9,1,6,2
15:38:21.717402,-1,-2,-1,2,-1,-4,-3,-3
15:38:21.725395,-2,-1,-1,-3,-3,-3,-1,-1
15:38:21.740386,0,0,-1,-3,0,-5,-2,4
15:38:21.740386,-1,-1,0,-2,-1,-3,-3,-1
15:38:21.770368,-2,2,-2,1,-1,2,-1,-3
15:38:21.770368,0,-1,-2,-2,3,2,1,-1
15:38:21.777363,0,2,-1,-1,0,0,1,0
15:38:21.785361,-2,0,-2,0,-2,-2,-2,-3
15:38:21.800349,-4,-1,-2,-2,-3,-5,0,-5
15:38:21.807343,1,2,-2,3,1,1,2,3
15:38:21.822336,2,-2,0,-2,-4,-1,0,-2
15:38:21.823334,0,-1,1,0,-3,0,0,-1
15:38:21.837328,-2,-3,-4,0,-1,-2,-4,0
15:38:21.845322,0,2,2,0,2,0,-2,1
15:38:21.860312,0,2,-1,0,0,-2,-1,0
15:38:21.867312,-1,1,-1,-2,-1,-3,-4,-2
15:38:21.882299,0,1,0,-2,0,0,2,0
15:38:21.883309,0,1,1,-1,-7,-4,-1,-2
15:38:21.897288,2,0,-1,-1,-2,-4,1,-1
15:38:21.905284,-2,-1,2,-2,0,1,-1,-2
15:38:21.920282,1,-1,-1,1,-1,0,1,0
15:38:21.927269,-1,-2,-1,-2,-3,0,-2,-3
15:38:21.942260,-4,-3,-2,1,-2,-1,-2,-4
15:38:21.943260,1,-3,-3,-1,-2,-2,-2,0
15:38:21.957251,0,-1,0,-2,1,-4,0,2
15:38:21.965247,3,-2,-3,-2,-3,0,-2,1
15:38:21.980238,-2,-1,-2,-1,1,0,-2,-3
15:38:21.987231,-1,-1,-2,0,1,-1,-4,-3
15:38:22.002223,-3,-3,-1,-4,-4,-3,-2,1
15:38:22.003224,-1,0,-1,-1,0,-2,-2,0
15:38:22.017214,-3,-2,-1,-3,-4,-3,-1,-3
15:38:22.025210,1,-1,-2,-1,-3,-2,-1,0
15:38:22.040209,4,0,2,2,5,3,-1,3
15:38:22.047195,-4,-5,-3,-4,-3,-1,-2,-1
15:38:22.070193,0,0,0,-2,2,1,-1,0
15:38:22.070193,-3,3,-3,0,-1,-3,-2,-3
15:38:22.077177,1,-4,-3,-2,-2,-1,0,-2
15:38:22.085173,-4,-2,-1,-3,0,0,2,-3
15:38:22.100164,-2,-2,-2,-1,0,0,0,-1
15:38:22.107159,1,-3,-4,-2,-3,-3,1,1
15:38:22.122150,-1,0,0,0,-2,-2,0,0
15:38:22.123149,-3,-1,0,-4,-1,-2,1,-4
15:38:22.137149,1,-5,-2,-2,1,-1,0,1
15:38:22.152151,0,-2,-4,-2,1,1,-4,-4
15:38:22.160126,2,-1,0,0,-1,-4,2,0
15:38:22.167149,-1,-1,-2,3,-2,0,-1,-1
15:38:22.182112,1,0,0,2,-3,-1,1,0
15:38:22.183110,-1,-3,-1,1,-1,-1,-2,1
15:38:22.205099,-5,-4,3,-3,-3,1,-1,1
15:38:22.205099,0,-1,0,1,2,0,-1,-1
15:38:22.220088,-2,1,-1,1,1,-2,1,0
15:38:22.227087,-4,0,2,1,-2,1,-4,-2
15:38:22.242074,1,-3,-1,0,-1,-1,2,-2
15:38:22.243074,-1,0,1,-3,0,-1,-1,-1
15:38:22.257072,-1,1,-2,0,-1,1,-1,-1
15:38:22.265060,0,-4,-3,0,0,-1,-1,-2
15:38:22.287046,-3,1,-2,-1,2,1,0,0
15:38:22.288047,-3,-1,-3,-1,-3,2,2,0
15:38:22.302037,-3,-2,-5,-2,-1,-1,1,2
15:38:22.303037,-1,-1,1,-2,-2,-1,-2,2
15:38:22.317033,0,0,-2,3,-3,1,0,0
15:38:22.325022,-3,-1,-1,1,-1,-3,-4,-1
15:38:22.340015,-2,-1,1,1,-2,1,-2,0
15:38:22.347012,-2,-4,-1,-4,0,0,0,-4
15:38:22.362015,3,-1,1,2,1,3,0,2
15:38:22.363000,-2,1,-3,1,1,-5,-1,-2
15:38:22.376992,0,1,-3,-1,2,-2,2,3
15:38:22.384985,0,3,3,4,4,3,1,6
15:38:22.399976,2,2,2,1,1,-2,1,3
15:38:22.406978,0,-2,0,-3,-2,-3,-2,-4
15:38:22.421966,0,-1,-1,-1,1,-1,-1,0
15:38:22.422963,-3,1,1,1,-2,0,1,1
15:38:22.436956,1,0,0,-2,-3,-3,-1,0
15:38:22.444948,2,1,2,3,5,1,-1,2
15:38:22.459939,1,-3,-2,-1,1,-1,-1,-1
15:38:22.466936,-1,-2,1,-2,-1,-1,-4,-1
15:38:22.481925,-5,-3,-5,-5,-6,-2,-5,-4
15:38:22.482925,-2,-1,0,2,-2,2,-1,-2
15:38:22.504911,1,1,1,3,2,0,0,1
15:38:22.504911,-1,-3,-2,2,0,-2,1,-2
15:38:22.519902,-5,-1,-1,-3,0,3,-2,-2
15:38:22.526897,-5,-1,0,-2,2,-3,-2,0
15:38:22.541888,3,-1,-1,0,-2,0,-1,-1
15:38:22.543888,-3,-1,0,-1,1,-1,-3,-3
15:38:22.556880,-1,-1,-1,-4,-5,0,-2,-5
15:38:22.564874,0,0,-1,0,-2,1,-2,1
15:38:22.579865,1,2,2,-1,1,4,-2,-1
15:38:22.594860,1,3,0,-2,-1,-4,-2,0
15:38:22.601850,0,-3,-3,1,-2,0,1,0
15:38:22.602851,1,-2,-2,0,-2,1,1,-1
15:38:22.616842,-2,-3,1,0,0,-3,-1,0
15:38:22.624837,1,0,0,-1,-5,-3,-1,-1
15:38:22.639827,0,0,2,2,5,3,2,-1
15:38:22.647823,-1,1,1,1,-1,0,-3,-1
15:38:22.661814,-3,-1,-1,-3,-1,0,0,-3
15:38:22.662813,-1,-4,-1,-1,1,-1,-1,2
15:38:22.677804,-5,-4,1,-1,3,-1,-1,-1
15:38:22.684800,-3,-2,-1,-1,-2,-3,-3,-1
15:38:22.699790,-2,0,0,-2,-2,2,-1,-1
15:38:22.706786,-1,-1,0,-1,-1,0,-3,0
15:38:22.722776,-4,-1,-1,1,-3,1,-1,-1
15:38:22.729772,-1,0,-5,-1,-3,-5,0,-3
15:38:22.744762,-4,-2,0,1,1,-4,0,-1
15:38:22.745762,-2,-1,0,-1,-2,0,0,-3
15:38:22.759753,-2,0,-1,-6,-1,-2,-1,-1
15:38:22.767748,0,-1,2,0,-1,0,-2,-1
15:38:22.782739,-2,-1,0,-1,3,0,1,3
15:38:22.789734,1,-2,-1,1,-1,-3,-1,0
15:38:22.804725,-3,-1,-2,1,-2,-1,-3,-1
15:38:22.805725,-3,-2,1,0,0,2,2,1
15:38:22.819716,-2,-1,-1,-2,0,0,0,-1
15:38:22.827712,1,-3,-3,0,-1,-4,-1,-3
15:38:22.842703,-2,-4,-5,-2,-5,0,1,-1
15:38:22.849697,-1,0,3,0,0,-4,-2,-1
15:38:22.871683,-2,0,-3,-2,-4,-2,1,-2
15:38:22.872683,-2,1,-2,2,0,-2,-2,1
15:38:22.880678,-3,-4,-4,4,-3,0,-2,-4
15:38:22.887674,0,2,0,2,0,-3,0,0
15:38:22.903664,3,1,-3,0,3,-2,2,0
15:38:22.909661,-1,-3,-1,0,1,0,0,-2
15:38:22.924651,0,-4,0,-1,-3,-2,1,-1
15:38:22.925651,-1,0,0,0,-3,-3,0,1
15:38:22.939641,0,-4,-3,-1,-1,-1,0,-1
15:38:22.947637,-1,1,-2,-2,-1,0,-1,-2
15:38:22.962627,0,-2,-1,-2,0,-1,-1,-2
15:38:22.969622,1,-2,-3,1,-1,-1,-1,-1
15:38:22.984613,-2,-2,0,-1,0,1,-1,0
15:38:22.985613,-4,-1,1,-2,-1,1,-2,-2
15:38:22.999605,0,-1,-2,-2,1,-4,-4,-3
15:38:23.007599,-1,-1,-3,-2,-4,-4,-2,-2
15:38:23.022591,-1,-3,-1,0,0,-2,1,0
15:38:23.029586,-1,-3,-1,-1,-1,-1,0,1
15:38:23.044576,-1,0,-1,2,-3,-2,-1,-1
15:38:23.045577,-3,-3,0,0,-4,0,0,0
15:38:23.059567,0,-1,-1,-1,0,-1,-1,-2
15:38:23.067562,1,0,-2,-3,-4,1,2,0
15:38:23.082555,-2,0,0,-3,2,-1,-2,-1
15:38:23.089548,1,2,0,0,-1,-2,1,0
15:38:23.104538,-1,2,-3,0,-1,-1,-1,-2
15:38:23.105538,-2,-1,0,-1,-1,0,-2,-1
15:38:23.127536,-3,-6,3,2,1,-2,-2,0
15:38:23.127536,-1,3,0,-3,-2,-2,0,-3
15:38:23.142516,-3,-2,-2,-1,5,5,2,-3
