timestamp,emg1,emg2,emg3,emg4,emg5,emg6,emg7,emg8
14:49:02.660727,1,0,1,-1,0,2,-2,2
14:49:02.668719,-2,0,-1,1,-2,0,3,-1
14:49:02.683710,0,1,2,-1,7,5,1,1
14:49:02.692705,2,1,-4,0,-5,-1,3,1
14:49:02.705694,1,1,-3,-1,2,2,2,4
14:49:02.713692,-3,0,-1,0,1,1,-3,-4
14:49:02.720687,-2,-1,0,0,0,0,0,-1
14:49:02.728680,-4,0,0,-3,2,1,-3,-6
14:49:02.743673,0,-3,-1,-1,6,3,-3,-4
14:49:02.750668,-1,-2,-1,0,-3,2,-3,0
14:49:02.765660,3,-1,-2,0,0,-1,-5,-1
14:49:02.772655,12,-5,-2,3,1,4,0,4
14:49:02.780650,-5,-2,-2,-1,-1,-2,-2,-1
14:49:02.787673,-1,-3,-2,-2,-3,0,0,-1
14:49:02.803635,-4,-2,-1,0,-13,-2,2,-1
14:49:02.810631,1,1,-4,-2,1,-5,-4,-1
14:49:02.825622,-1,0,0,0,2,2,0,-1
14:49:02.832620,-5,0,-4,0,1,-3,0,0
14:49:02.848609,0,1,2,-2,1,-2,-4,-8
14:49:02.848609,5,2,-3,-1,2,-2,1,2
14:49:02.863600,-2,0,-2,0,1,-1,-2,-1
14:49:02.870596,-13,-9,-3,-3,-4,-1,-4,-4
14:49:02.885587,-3,0,-1,-3,-3,0,-3,-2
14:49:02.893582,-2,-2,-3,-3,-3,-4,-4,-4
14:49:02.901578,2,1,-1,2,-1,0,1,3
14:49:02.908570,1,1,-2,-1,-1,-3,-1,-1
14:49:02.924561,3,-1,2,-1,-1,-1,-3,-2
14:49:02.930558,-1,-1,-1,-3,-11,-5,0,-2
14:49:02.953541,-2,-1,-3,1,5,1,-1,1
14:49:02.953541,-2,1,0,-1,-1,0,-1,-1
14:49:02.968533,-1,-3,2,2,1,4,3,3
14:49:02.968533,0,0,-1,-4,-3,-1,-3,-1
14:49:02.983526,-11,-2,0,2,3,-1,-2,-5
14:49:02.991520,-4,0,-1,-4,-2,-1,0,-2
14:49:03.006509,0,-2,-1,2,-5,-1,-1,-1
14:49:03.013507,2,-1,1,2,2,1,-1,1
14:49:03.028497,-1,1,1,1,0,-1,-1,-1
14:49:03.029495,-5,1,-1,2,2,0,-1,-8
14:49:03.043489,-2,-2,1,-2,-3,-1,-1,-1
14:49:03.058480,-3,1,0,-3,-15,-5,2,2
14:49:03.066472,-1,1,-2,1,7,4,2,-2
14:49:03.074467,-6,0,0,2,4,-4,-2,0
14:49:03.088461,0,2,-1,2,-3,-1,0,2
14:49:03.089457,1,1,-2,-1,0,-3,0,1
14:49:03.103451,-4,-3,0,0,-1,0,-1,-1
14:49:03.111446,3,2,-1,-4,-4,-2,-1,0
14:49:03.126437,-3,-2,-2,1,-1,-1,0,-1
14:49:03.133433,-1,3,0,0,-7,-4,-4,-1
14:49:03.148423,-2,1,1,-3,0,-1,-1,0
14:49:03.149421,2,0,-1,1,4,3,2,5
14:49:03.163414,6,-1,0,1,1,-6,-3,-2
14:49:03.170412,-2,-3,-4,-2,-1,1,-4,-5
14:49:03.186400,-1,1,-1,-1,0,0,-5,-2
14:49:03.193393,1,-1,3,0,-3,0,-1,-1
14:49:03.209384,1,-4,-2,1,1,0,0,1
14:49:03.210383,1,2,-1,-1,-1,-1,-4,-4
14:49:03.224374,2,5,0,0,-1,1,3,7
14:49:03.231373,-5,-1,2,1,-1,-2,-1,-4
14:49:03.246363,0,0,2,-3,0,-3,-1,0
14:49:03.253358,0,0,0,0,1,3,2,-3
14:49:03.269346,1,0,1,-2,-3,-2,-1,0
14:49:03.269346,-7,2,-1,-3,-20,-5,-2,0
14:49:03.283340,-4,1,-1,3,8,2,0,-1
14:49:03.291333,3,1,1,4,0,-5,1,1
14:49:03.306323,-5,-4,0,0,-2,2,1,-1
14:49:03.313321,-2,-1,-2,1,6,10,-3,-6
14:49:03.328310,-3,-3,-2,-3,-5,-4,-1,0
14:49:03.329311,4,1,-3,-3,-3,1,0,-4
14:49:03.343300,-2,1,2,1,0,-2,1,2
14:49:03.351298,-1,2,-4,-1,-1,-3,-6,-5
14:49:03.366285,0,-1,-3,0,1,-3,0,0
14:49:03.374283,-2,1,-2,4,1,-2,2,3
14:49:03.388275,-2,0,1,0,-1,-4,-1,-1
14:49:03.389274,-2,3,-3,-3,0,-3,-3,0
14:49:03.403265,0,3,2,1,-13,-2,-3,1
14:49:03.411261,-3,-1,-3,-1,1,2,0,-2
14:49:03.426252,2,-1,-2,0,0,3,3,1
14:49:03.433247,-1,-2,0,-4,0,1,-2,-4
14:49:03.448237,0,1,-1,2,0,0,-2,0
14:49:03.449237,-6,-3,1,1,-3,-3,1,-3
14:49:03.463228,-1,0,-4,-4,-3,2,-4,-4
14:49:03.479218,-1,0,0,-1,1,4,0,-1
14:49:03.486214,-6,-4,-2,-4,-7,-2,-1,-6
14:49:03.493210,3,-3,-2,2,4,0,-3,-4
14:49:03.508198,-2,-1,0,-5,1,-2,-1,0
14:49:03.509202,-3,-1,0,-1,0,-3,1,0
14:49:03.524189,-2,1,1,0,6,-1,-3,-1
14:49:03.531184,-7,0,-4,-3,0,-5,-4,-3
14:49:03.546177,0,0,0,2,1,-3,0,0
14:49:03.553172,-1,-1,-1,-1,1,-1,0,-1
14:49:03.568163,-2,0,-3,1,-1,-2,1,3
14:49:03.569162,2,3,0,2,-1,-1,1,-2
14:49:03.583153,0,-3,1,0,0,2,2,1
14:49:03.591147,-5,-3,-1,1,-1,-1,-3,-2
14:49:03.606140,2,-2,0,-2,-5,-1,-3,-1
14:49:03.613135,-1,-4,-1,3,2,-1,1,-4
14:49:03.628126,-1,0,-4,-2,-4,-3,-6,-2
14:49:03.629123,-5,0,0,3,3,-2,-4,-5
14:49:03.644116,0,-2,0,-2,-10,1,0,0
14:49:03.651112,-6,-4,0,1,3,2,-2,-1
14:49:03.666102,0,0,-2,-1,-3,-2,4,-1
14:49:03.675095,-2,1,-1,-2,2,0,-2,-1
14:49:03.688091,-1,-1,-1,2,0,5,0,0
14:49:03.690085,2,-2,-1,-1,-4,-2,-1,0
14:49:03.703077,-4,-3,-3,1,4,-1,-1,-2
14:49:03.711074,-2,0,2,3,0,-6,-5,-4
14:49:03.726062,-1,1,2,0,0,-1,0,-3
14:49:03.733059,-2,-2,-2,-5,-10,-5,0,0
14:49:03.749050,0,-2,2,-1,-1,-2,-3,-2
14:49:03.750050,0,-1,3,-4,3,3,3,1
14:49:03.764042,-1,-1,0,-4,1,-1,0,-3
14:49:03.771037,-2,-1,-2,0,-2,1,3,1
14:49:03.794022,2,1,1,4,5,3,0,3
14:49:03.794022,3,0,-1,1,-4,-3,-1,1
14:49:03.809015,2,-1,-4,0,1,0,0,-3
14:49:03.809015,-1,-1,0,4,0,-5,-2,0
14:49:03.825002,3,-4,1,1,0,4,-3,4
14:49:03.831000,1,1,-2,-3,-13,-7,-2,-1
14:49:03.845991,-7,-3,-3,2,5,1,-3,-7
14:49:03.852985,5,-2,-2,-2,1,0,2,-1
14:49:03.867976,-2,0,-2,-1,-5,-3,0,-2
14:49:03.868976,-1,-3,-2,-1,0,0,-2,-2
14:49:03.891963,-4,-2,2,-1,-3,-2,-3,0
14:49:03.898957,0,-4,-1,1,3,1,-1,0
14:49:03.905953,-1,1,0,-1,4,0,-2,-1
14:49:03.913945,0,-3,1,-2,0,0,-2,-1
14:49:03.928936,-3,0,2,13,20,-1,-3,3
14:49:03.935932,0,1,-2,-13,-17,-6,-2,0
14:49:03.950926,0,-3,1,2,-5,-5,-3,-2
14:49:03.951922,-5,-1,-1,2,4,3,0,1
14:49:03.965916,-6,-3,3,-7,-23,-2,-3,-4
14:49:03.974909,2,4,0,13,13,1,5,2
14:49:03.988899,1,-1,-11,16,23,-1,0,1
14:49:04.003890,-3,-6,8,-9,6,4,-5,-4
14:49:04.010889,4,4,20,39,32,4,3,3
14:49:04.011885,3,-2,-7,-4,-15,-1,0,1
14:49:04.025879,-5,-5,2,3,58,1,-1,-7
14:49:04.033872,-4,-2,1,1,-7,-8,-3,1
14:49:04.048864,0,2,5,-16,-11,7,1,1
14:49:04.055860,-3,-7,-37,-43,49,1,-3,-1
14:49:04.070851,-5,-7,-31,8,49,1,-4,-4
14:49:04.071849,-2,3,19,65,99,2,-3,-2
14:49:04.085842,6,10,25,1,33,1,3,3
14:49:04.093834,4,-3,-5,-44,-56,-4,1,3
14:49:04.108826,7,4,-30,-91,-128,-17,2,7
14:49:04.115823,-12,-17,-32,-25,-125,-54,-14,-12
14:49:04.130814,-5,-10,1,-41,-56,-21,-6,-4
14:49:04.131810,2,12,62,110,127,90,7,1
14:49:04.145805,9,0,-22,-33,-128,-76,5,11
14:49:04.152800,20,31,19,-128,43,46,15,16
14:49:04.168788,-14,-4,24,-128,127,4,-7,-15
14:49:04.175786,-36,-55,-95,14,127,95,-17,-25
14:49:04.191778,11,14,-128,-128,-128,-128,-15,-3
14:49:04.191778,-74,-108,27,127,-27,-40,-56,-55
14:49:04.206765,51,52,-128,-128,-128,14,50,50
14:49:04.213763,-18,-37,-5,127,-44,28,-4,-6
14:49:04.228752,22,35,-16,-128,-2,5,8,4
14:49:04.235749,-4,9,54,127,-113,-4,-1,-1
14:49:04.250740,12,16,35,-96,-128,-25,4,3
14:49:04.251739,-15,-23,-19,33,127,-14,-16,-10
14:49:04.265730,4,10,2,9,70,26,5,4
14:49:04.273723,3,-1,-10,4,89,-46,0,0
14:49:04.288716,3,-3,-6,-54,-9,5,-1,0
14:49:04.295712,8,19,27,59,-128,-26,9,5
14:49:04.318694,-1,-9,2,2,-78,-6,0,2
14:49:04.318694,12,9,1,14,-35,-2,14,13
14:49:04.326693,18,67,73,-4,127,32,13,7
14:49:04.333686,-23,-75,-61,127,127,-28,-10,-10
14:49:04.348679,22,47,12,-128,-128,30,17,13
14:49:04.355673,12,66,60,-128,-128,-127,-13,-5
14:49:04.370666,-30,1,72,-54,-128,-24,-30,-26
14:49:04.371664,10,107,45,-128,127,-46,-20,-19
14:49:04.385655,-4,9,-86,-128,-128,-114,-10,-7
14:49:04.393651,-32,-18,12,-128,-128,-128,-46,-24
14:49:04.408639,-9,-26,-52,127,127,127,12,-7
14:49:04.415636,41,122,107,127,127,-43,14,15
14:49:04.430628,-3,-36,-89,127,55,-42,-15,0
14:49:04.431628,-4,-13,-72,127,-128,0,-5,1
14:49:04.445618,57,127,100,127,81,127,27,30
14:49:04.453614,-40,-128,-128,-124,-128,-4,-2,-4
14:49:04.475601,17,85,65,-128,-128,-128,-2,3
14:49:04.476597,-41,-128,-128,115,-83,45,3,-7
14:49:04.491589,15,-2,-8,-128,-128,-128,-1,4
14:49:04.492587,-106,-128,-96,-128,-128,31,-37,-54
14:49:04.506581,47,100,47,118,127,-20,11,15
14:49:04.513577,32,115,109,-128,-128,-54,-10,-1
14:49:04.528567,-9,-16,18,20,127,3,9,4
14:49:04.535563,30,67,44,-14,127,-13,9,5
14:49:04.551550,-37,-128,-108,-128,-128,-85,-17,-10
14:49:04.551550,-5,-2,-11,-128,-111,14,-8,-6
14:49:04.566544,10,40,83,-128,127,127,15,8
14:49:04.573539,-12,-26,-39,-59,-81,-61,-13,-7
14:49:04.588530,-19,-52,-42,-128,-78,-26,-2,-3
14:49:04.596525,-23,-50,-72,127,100,17,-7,-8
14:49:04.610516,38,70,-1,127,127,127,29,22
14:49:04.611516,16,41,16,-128,-128,-50,4,14
14:49:04.626508,-23,-43,-8,0,127,-18,-4,-11
14:49:04.633500,-15,-35,-19,-3,-128,-90,-15,-12
14:49:04.648493,19,-9,10,-90,-128,-69,0,13
14:49:04.656488,-11,-40,-68,22,-128,-37,-5,-2
14:49:04.670479,16,37,27,-21,-64,-32,0,11
14:49:04.671484,-53,-110,-81,-47,127,-7,-18,-21
14:49:04.686470,15,54,28,115,-18,-16,-7,-2
14:49:04.693465,10,10,5,35,127,-28,4,7
14:49:04.708454,7,13,-13,-128,-128,-19,2,0
14:49:04.716448,1,-11,-45,-85,-128,-102,-8,6
14:49:04.730442,-39,-105,-62,101,127,37,-5,-17
14:49:04.731443,12,26,19,127,100,-32,1,6
14:49:04.746429,11,6,0,-95,127,1,4,8
14:49:04.753428,0,-5,7,-28,-128,-31,-5,0
14:49:04.768419,-37,-61,-43,-70,-47,-38,-18,-18
14:49:04.776415,7,20,18,65,-128,16,4,6
14:49:04.792404,-14,-24,-23,-128,-128,32,-7,-9
14:49:04.792404,-5,-2,-1,-11,-41,-16,-7,-5
14:49:04.807395,1,1,-4,-23,-6,-4,2,2
14:49:04.813391,4,4,-8,-3,18,3,3,1
14:49:04.836374,-4,-2,-6,-29,6,-1,0,2
14:49:04.836374,16,6,-3,-1,13,-4,-1,3
14:49:04.851368,-46,-18,-9,-4,-4,-5,-7,-10
14:49:04.858361,13,19,7,11,9,14,9,9
14:49:04.875350,-44,-10,5,5,5,-2,8,10
14:49:04.875350,6,-1,-3,-4,-7,3,-13,-20
14:49:04.888344,4,-2,-2,-1,-2,2,8,20
14:49:04.896339,56,13,10,12,15,15,14,19
14:49:04.911330,-46,-27,-15,-14,-12,4,-19,-21
14:49:04.918326,-22,-11,-5,-8,-14,-15,-2,-14
14:49:04.942309,-7,19,10,11,8,-2,1,5
14:49:04.942309,27,-20,-26,-25,-23,-14,-78,-32
14:49:04.948307,2,6,15,11,13,7,28,-9
14:49:04.956300,-13,-13,-11,-16,-19,13,-56,-9
14:49:04.971290,-31,10,9,6,5,5,70,-23
14:49:04.978288,1,7,0,-5,-3,-1,-19,37
14:49:04.993280,1,7,3,-4,8,6,6,-20
14:49:04.994279,16,14,0,7,11,5,25,-10
14:49:05.008269,-32,-4,-24,-4,-32,-43,-10,-6
14:49:05.016265,-17,4,19,34,-32,5,1,10
14:49:05.031256,25,5,12,12,22,11,1,19
14:49:05.046246,36,36,20,28,25,13,-1,-8
14:49:05.053242,58,-27,-9,-24,-10,5,3,10
14:49:05.054238,4,5,-4,-23,-21,-27,-8,-12
14:49:05.069233,-1,19,25,-70,17,27,10,-2
14:49:05.076228,-7,-18,-55,-66,-45,-35,-2,2
14:49:05.092219,2,11,25,65,-128,-2,1,0
14:49:05.098214,-55,-20,-84,-128,127,16,-12,-15
14:49:05.113205,-20,-18,6,68,-108,-21,-15,-21
14:49:05.114204,34,-30,-7,-11,2,-25,-34,5
14:49:05.128195,12,-8,-2,-10,-14,26,24,14
14:49:05.136190,-16,-16,27,30,-1,10,0,0
14:49:05.151181,-17,0,17,78,53,-18,-16,-38
14:49:05.159174,-28,9,8,-27,-56,-7,-1,-9
14:49:05.174165,-9,-16,-28,1,18,-4,5,25
14:49:05.175165,-13,6,-9,6,1,5,6,8
14:49:05.188158,-15,1,9,-1,-3,6,-1,-13
14:49:05.196154,3,2,1,26,0,5,12,11
14:49:05.211144,4,6,22,12,-11,10,-4,-3
14:49:05.218141,-13,-14,-16,-10,67,-4,-4,-5
14:49:05.233131,-5,1,-3,-11,-25,-16,6,-3
14:49:05.234127,88,-14,-20,40,34,21,13,34
14:49:05.256116,-17,-2,26,12,60,63,14,10
14:49:05.256116,-10,-15,-1,4,-56,-29,1,-19
14:49:05.271107,19,9,-6,-90,-80,-15,5,14
14:49:05.279101,-4,-8,11,32,127,10,-3,-3
14:49:05.293093,8,13,5,-128,-128,-4,4,7
14:49:05.294091,-26,-7,9,77,68,-1,-10,-5
14:49:05.316078,0,7,-16,3,3,3,-9,-10
14:49:05.317075,-19,-17,-4,34,-64,-28,-15,-6
14:49:05.331070,-10,6,-19,-2,8,8,-8,-28
14:49:05.338062,-15,-10,-33,-64,81,9,-6,-14
14:49:05.361051,-13,0,21,25,27,-18,-11,-13
14:49:05.362049,6,6,-34,-128,-128,-12,6,7
14:49:05.376042,-10,-17,-8,9,30,-13,-13,-8
14:49:05.377040,2,12,3,44,34,27,13,3
14:49:05.392029,-10,2,7,5,-30,-12,-1,-2
14:49:05.399026,-2,-18,-1,14,-72,-6,5,4
14:49:05.414015,-5,1,-41,0,48,16,5,-1
14:49:05.414015,5,2,23,12,60,0,3,0
14:49:05.436002,38,11,-10,11,-16,9,7,50
14:49:05.436002,-5,-10,-6,99,59,10,-1,-3
14:49:05.450996,-4,4,-3,17,67,10,9,10
14:49:05.458988,-16,-15,11,27,40,10,4,-7
14:49:05.474980,8,6,7,8,87,7,5,6
14:49:05.474980,-33,-23,11,-2,51,-4,-16,-16
14:49:05.488969,19,10,1,19,-2,18,10,11
14:49:05.495968,0,3,6,11,5,4,-3,-9
14:49:05.510958,-1,-1,-12,-19,-24,-11,0,-4
14:49:05.518953,19,1,6,-128,-45,5,-1,7
14:49:05.532945,-6,-3,1,19,15,-3,-1,-7
14:49:05.533941,4,3,17,-4,-53,0,7,8
14:49:05.548934,-5,3,4,15,6,-2,4,0
14:49:05.555930,-3,-8,-42,-57,-69,-5,-3,-2
14:49:05.570921,-21,-5,1,-2,-31,-8,-1,-8
14:49:05.578914,-18,-17,-3,-69,-20,-9,-7,9
14:49:05.593906,3,6,22,3,-28,-9,-2,-2
14:49:05.593906,6,7,-3,-99,-128,0,4,5
14:49:05.608898,2,1,1,17,49,6,4,-2
14:49:05.615893,1,-3,-1,-5,0,2,-1,3
14:49:05.630883,5,-3,-11,9,-6,-1,2,16
14:49:05.637892,18,-4,-2,-6,-85,-2,2,0
14:49:05.653868,-15,2,10,-14,-13,1,1,-6
14:49:05.653868,-14,-11,-3,22,-22,-24,-9,-7
14:49:05.668860,-4,9,-6,-15,0,2,-1,4
14:49:05.675853,-1,-1,-10,-7,1,2,-5,-7
14:49:05.691847,-4,-5,-7,-8,-4,-12,0,-2
14:49:05.698842,-5,-7,-4,-8,19,-8,-9,-6
14:49:05.713830,14,-1,-4,-8,-24,-3,5,11
14:49:05.713830,1,-6,-32,-106,-61,-7,-6,-5
14:49:05.728823,0,-4,10,47,65,13,-2,0
14:49:05.735819,10,-5,-1,1,39,0,5,14
14:49:05.758802,-12,0,2,-6,18,6,-1,-8
14:49:05.759801,1,2,-14,-9,-34,-3,6,6
14:49:05.774793,7,2,9,6,18,-4,4,5
14:49:05.780791,1,1,1,1,3,4,1,1
14:49:05.795781,3,-2,2,-1,6,2,1,-6
14:49:05.796778,-3,2,1,-4,12,-1,-4,-4
14:49:05.810772,-6,-1,-2,6,4,-1,-4,-10
14:49:05.818768,6,-1,0,6,51,2,6,8
14:49:05.833758,4,3,-27,-105,-95,-21,-8,-4
14:49:05.841750,-1,3,16,48,25,4,-3,-4
14:49:05.855744,1,2,-8,-1,0,3,1,1
14:49:05.856742,1,2,4,10,-15,-1,0,4
14:49:05.878727,-8,-3,-1,7,27,-1,-4,-9
14:49:05.878727,0,-1,7,1,-2,-3,-1,-2
14:49:05.893722,-4,4,-5,-5,7,6,5,-1
14:49:05.900719,-4,-2,-5,-47,39,2,4,2
14:49:05.915707,23,4,-5,3,34,-4,1,12
14:49:05.916704,-14,-8,0,11,-8,-3,-1,-2
14:49:05.930697,-3,0,-8,-48,-5,-1,0,0
14:49:05.938692,3,6,-7,4,12,-5,-7,13
14:49:05.953683,-1,2,-8,-14,-32,-2,0,-2
14:49:05.961678,-6,-6,-3,-15,-11,-5,-3,-6
14:49:05.975670,3,1,1,2,6,-6,2,1
14:49:05.976670,2,-1,-4,-4,-1,-8,-3,0
14:49:05.991658,-1,-2,-12,-32,-25,-3,0,1
14:49:05.998656,7,4,6,57,25,1,3,6
14:49:06.013646,-1,-3,-6,-5,-22,-4,-2,-3
14:49:06.020642,3,-1,-4,-12,41,12,-3,-1
14:49:06.035633,-1,-2,-6,-11,-28,-13,-8,-1
14:49:06.036630,2,0,6,-2,2,6,1,0
14:49:06.050622,0,-1,-5,6,50,9,2,1
14:49:06.058616,0,-3,0,11,15,-1,1,1
14:49:06.073608,0,-1,6,7,-19,-2,0,-4
14:49:06.088600,-5,-3,-4,6,-11,-5,-4,-3
14:49:06.095596,6,0,1,33,42,6,3,-3
14:49:06.096595,6,3,5,-22,-36,0,5,11
14:49:06.111585,13,-2,-1,-3,20,8,2,16
14:49:06.118582,-2,2,-1,-6,-73,-9,-4,-2
14:49:06.133572,-1,-5,-2,-27,-73,-14,0,-1
14:49:06.141565,-3,-3,2,5,11,-2,0,-3
14:49:06.155562,4,3,3,16,5,1,-1,1
14:49:06.157556,6,0,2,4,-4,1,0,7
14:49:06.171548,-6,-6,-2,0,-6,-6,-7,-2
14:49:06.178547,-5,-6,-5,-13,-12,-23,-7,-5
14:49:06.193536,2,-2,2,-27,7,7,-1,-5
14:49:06.201530,-9,-6,-11,19,60,1,-7,-10
14:49:06.215521,-3,0,1,2,-5,-1,4,1
14:49:06.216521,1,-1,-1,22,24,0,-1,-4
14:49:06.231510,-2,-3,-3,-6,-6,1,-2,1
14:49:06.238507,2,3,4,-3,7,9,10,6
14:49:06.253497,-4,-4,1,7,8,-1,-1,-2
14:49:06.261490,4,1,-1,-17,16,4,0,1
14:49:06.276483,-1,0,0,1,9,1,-3,-1
14:49:06.276483,-2,-3,1,16,-72,-6,-1,-1
14:49:06.298470,1,-5,-4,6,33,1,0,3
14:49:06.299466,2,1,0,1,3,3,1,2
14:49:06.313461,-6,-3,0,13,7,0,-7,-9
14:49:06.320456,1,0,1,-12,-18,-4,0,1
14:49:06.336443,-1,-3,-3,3,-1,-11,-5,-4
14:49:06.336443,-3,3,2,1,1,1,-1,1
14:49:06.351435,-3,-6,-1,0,-37,-7,-3,4
14:49:06.358433,-3,-1,1,-6,23,4,-2,-4
14:49:06.374421,2,1,-3,-13,-35,-7,1,-5
14:49:06.381418,-9,-2,-2,4,6,-6,-1,-5
14:49:06.395409,4,1,-1,-5,2,-2,0,0
14:49:06.396406,-6,-1,-1,-29,-18,0,1,-1
14:49:06.411400,3,2,-1,6,-12,-2,2,-1
14:49:06.418395,-2,-2,1,-1,-1,-5,-1,-1
14:49:06.433386,-2,-4,-1,5,2,-1,-5,-3
14:49:06.441380,-1,-1,0,2,-4,3,3,1
14:49:06.456369,3,3,1,7,-1,-1,2,4
14:49:06.457370,3,-1,1,-5,11,0,0,4
14:49:06.471366,-1,-2,-2,-4,-30,-5,-1,0
14:49:06.478358,0,-3,-3,0,18,5,-3,0
14:49:06.493349,-2,0,1,13,-46,0,0,-3
14:49:06.501345,-1,3,0,11,10,-6,-4,1
14:49:06.516332,-1,1,1,14,42,0,-1,-2
14:49:06.516332,-2,-5,0,-1,2,0,2,2
14:49:06.531325,0,2,-3,1,0,-1,1,0
14:49:06.538321,-3,-3,-1,1,-2,-1,-3,-5
14:49:06.553311,-3,-4,-5,-3,-3,0,0,4
14:49:06.561307,0,-1,-1,-3,0,0,0,-3
14:49:06.576295,0,-4,-2,0,2,1,-1,-6
14:49:06.576295,0,-1,1,1,7,8,-3,0
14:49:06.592285,7,1,1,-14,13,4,3,2
14:49:06.607277,-3,3,1,-20,-8,15,2,3
14:49:06.613276,0,-1,-1,-19,-7,-9,-3,-1
14:49:06.621267,-3,-3,0,9,14,-1,0,-1
14:49:06.636258,2,3,1,-4,-6,0,0,4
14:49:06.636258,-2,-3,-2,-3,-3,-4,-1,3
14:49:06.651251,-5,-2,0,-2,-5,-1,-2,-4
14:49:06.659243,3,-1,1,0,0,3,0,1
14:49:06.675233,0,0,-2,-2,-7,-2,0,7
14:49:06.681232,3,0,-1,2,7,-1,-3,5
14:49:06.696220,-1,-1,0,-1,2,2,-3,0
14:49:06.696220,-2,0,0,-1,-1,0,-2,1
14:49:06.711218,1,-1,1,8,3,8,0,2
14:49:06.718209,-3,0,-1,-18,-17,4,-3,-4
14:49:06.734200,-1,-2,-1,4,4,-9,-2,-1
14:49:06.742192,-2,-2,-3,-3,-5,-4,-1,2
14:49:06.757183,-2,-4,-2,-1,-1,-4,1,2
14:49:06.763181,-1,2,-2,-1,-4,-4,-5,-5
14:49:06.778172,1,-4,0,0,0,-1,-3,-6
14:49:06.779172,-2,-1,-1,-1,0,-4,-3,-5
14:49:06.794159,-2,-4,-1,-6,-6,-4,-2,-6
14:49:06.801159,-1,-3,-2,-7,-7,-1,-2,1
14:49:06.817145,-2,0,-2,-5,11,-1,-2,-1
14:49:06.824143,-3,-3,-4,-17,-11,-10,-8,-7
14:49:06.838135,0,-3,-2,3,11,1,-2,1
14:49:06.839132,3,2,2,-2,1,-1,-1,7
14:49:06.853126,-2,2,-1,-5,-7,-8,-1,-5
14:49:06.861121,-1,-2,-4,-2,-5,-3,-4,1
14:49:06.876112,-3,-1,-2,-1,-3,-4,1,-4
14:49:06.883106,-1,-1,0,-2,-10,1,1,1
14:49:06.898097,3,3,3,6,7,-8,-7,0
14:49:06.899095,-1,-1,-2,-3,-2,0,-4,-5
14:49:06.913087,1,0,0,-8,-3,7,0,4
14:49:06.921083,-1,-3,-1,-12,-15,-3,-1,1
14:49:06.936074,4,2,0,7,1,-6,0,-1
14:49:06.944066,2,-1,-1,-4,2,-5,-3,-6
14:49:06.959061,-4,3,-1,4,2,1,4,-1
14:49:06.959061,2,3,-2,-2,-5,-3,-1,-1
14:49:06.975048,8,1,1,-4,-9,1,-1,-1
14:49:06.981046,-4,-1,1,7,0,-4,-2,-4
14:49:06.996037,0,-3,0,8,-7,-2,-1,-5
14:49:07.003033,-5,1,-2,-6,-14,-1,-2,-3
14:49:07.019020,-1,-3,-2,10,17,4,-4,-2
14:49:07.019020,-1,1,0,1,-13,-3,-3,0
14:49:07.034011,-6,0,2,21,42,5,0,-9
14:49:07.042008,2,1,2,-1,-13,-5,1,3
14:49:07.056000,1,-1,0,14,19,4,1,4
14:49:07.063992,14,1,0,0,0,5,4,16
14:49:07.078983,-3,0,0,3,6,-2,-2,0
14:49:07.078983,-1,1,4,10,47,5,0,-5
14:49:07.093977,-5,0,-3,-3,-3,-10,-4,-4
14:49:07.100972,-5,-1,-4,-4,-9,-6,-2,-3
14:49:07.115963,-2,1,1,6,7,3,3,0
14:49:07.124956,-4,1,1,-5,-48,0,0,-1
14:49:07.138948,-1,0,-2,3,1,-9,-5,-2
14:49:07.138948,-1,-2,-3,-5,1,-1,3,0
14:49:07.153937,-8,-3,-2,-9,4,0,-1,-5
14:49:07.160935,1,1,2,14,7,-8,-1,4
14:49:07.175925,-2,-3,-1,-4,-21,-3,-1,-3
14:49:07.183921,0,2,1,9,9,3,0,1
14:49:07.198908,-5,-1,-5,-3,1,-5,-3,-1
14:49:07.198908,0,-4,0,-7,6,0,0,-2
14:49:07.213899,8,3,2,-4,-4,-2,-1,1
14:49:07.220898,-1,-1,2,0,1,-5,-3,-1
14:49:07.235889,-1,1,-2,-5,-7,0,-2,-4
14:49:07.243884,2,-3,-1,5,36,-2,4,3
14:49:07.258872,3,0,-4,5,19,-3,-4,8
14:49:07.259871,1,-2,-3,0,-6,-1,3,2
14:49:07.273863,-1,1,-3,-1,5,2,1,-2
14:49:07.280861,11,2,2,0,1,1,3,13
14:49:07.295851,-1,-1,-2,-4,0,-3,1,-6
14:49:07.303846,-1,-1,-1,-1,-2,-5,-2,-1
14:49:07.318835,-1,0,1,6,2,-4,-7,-4
14:49:07.318835,-1,0,-2,-1,2,2,0,-1
14:49:07.341820,0,0,-1,-7,-3,-3,-3,1
14:49:07.341820,-4,4,3,16,9,4,3,2
14:49:07.355812,-5,-1,-3,-27,-28,-6,-5,-5
14:49:07.363809,-2,-2,-4,11,21,-1,-2,-4
14:49:07.378797,0,0,0,-5,11,6,1,-3
14:49:07.378797,-4,0,-2,-6,-2,1,-1,-1
14:49:07.393791,-3,-1,0,-1,-1,-1,-3,-2
14:49:07.401783,-1,-1,0,-1,-5,0,-3,-6
14:49:07.415776,-1,2,1,-1,-1,-2,-1,0
14:49:07.423771,8,2,1,-4,-5,-7,0,4
14:49:07.438760,-1,-3,0,-1,-6,-5,-1,-1
14:49:07.438760,-4,-5,-1,11,-3,0,1,-3
14:49:07.453753,-5,-4,1,8,6,-2,-2,-2
14:49:07.460749,0,1,0,-12,-14,0,1,2
14:49:07.475737,-2,0,0,14,10,2,0,0
14:49:07.483734,-3,-4,-2,-6,-7,-1,-1,-5
14:49:07.498723,-4,-4,1,-2,0,-3,-5,-1
14:49:07.499726,-4,-2,-2,6,0,0,2,-2
14:49:07.513716,1,-2,-1,-2,-6,0,-3,-1
14:49:07.520714,-3,-2,-3,-1,5,12,2,2
14:49:07.535702,-3,-3,-3,-3,-2,0,-2,1
14:49:07.543698,0,-6,0,-1,3,0,-3,-2
14:49:07.558686,-4,-6,-3,-47,-26,-1,-4,-3
14:49:07.559688,-1,0,-4,14,8,3,0,0
14:49:07.574676,2,5,2,5,21,-1,0,3
14:49:07.580674,-10,-5,-2,-3,3,-2,0,1
14:49:07.596664,1,-1,2,4,8,-3,-3,0
14:49:07.603660,-2,-4,-4,-10,0,1,0,1
14:49:07.618648,-2,-3,3,12,13,1,-3,0
14:49:07.618648,-3,-1,-1,3,-13,1,-1,-5
14:49:07.633642,4,0,-3,-27,-4,-2,1,1
14:49:07.641634,-1,0,2,13,24,6,3,1
14:49:07.655626,-4,-1,0,-21,-24,-6,-2,-6
14:49:07.663623,-11,-5,-2,4,20,2,2,0
14:49:07.678614,1,4,1,0,-1,-2,-6,-3
14:49:07.685610,4,-1,-2,-4,-4,-1,-1,0
14:49:07.701597,2,-1,2,-16,7,-1,-1,0
14:49:07.701597,-1,-3,1,11,-11,-2,0,-3
14:49:07.716590,-1,-1,-1,-3,2,0,-1,1
14:49:07.723584,-2,-2,2,-3,-8,-1,1,-2
14:49:07.738577,-1,-1,4,1,-3,-2,0,0
14:49:07.746569,-2,-3,-2,12,2,-10,-2,-5
14:49:07.760563,0,2,0,3,-27,-2,0,-1
14:49:07.761563,-4,-5,0,7,18,8,-3,-2
14:49:07.776552,0,3,2,-1,4,2,0,-2
14:49:07.783549,-8,1,-5,3,4,-5,-7,-5
14:49:07.798539,-2,2,0,14,-8,1,-4,-2
14:49:07.805534,-2,1,1,13,2,-2,-2,-3
14:49:07.820526,-1,3,4,-5,-5,-4,0,5
14:49:07.821524,0,-1,2,4,4,-2,-3,1
14:49:07.836516,-2,-2,-1,-4,-6,-3,-2,-3
14:49:07.843512,-1,-2,-1,0,-7,-3,-1,0
14:49:07.858499,1,3,3,2,2,1,4,0
14:49:07.866496,-3,1,-2,-22,-16,0,-4,-10
14:49:07.880488,-1,-2,-2,5,1,0,1,-1
14:49:07.881485,-1,1,-1,-1,-22,-4,3,1
14:49:07.896478,8,-1,1,0,14,2,2,7
14:49:07.903474,-1,1,0,-4,-3,1,-2,-2
14:49:07.918465,0,0,-5,-5,0,-1,-4,0
14:49:07.926458,-2,-1,2,12,-12,-7,-5,-3
14:49:07.942448,0,-4,-1,6,4,4,-4,2
14:49:07.948446,-3,-3,0,2,1,-2,-3,-4
14:49:07.963434,4,-2,1,11,5,2,0,4
14:49:07.964434,-1,-3,0,-5,-12,2,-1,-3
14:49:07.978428,-3,0,-2,2,5,0,0,1
14:49:07.986425,-7,-5,0,0,0,1,2,1
14:49:08.001411,3,-2,-2,-3,-3,-4,-5,-4
14:49:08.001411,1,0,2,-6,-3,-2,-5,-3
14:49:08.016402,-2,1,2,-5,-11,-5,0,-1
14:49:08.024397,-4,-2,2,-30,-47,-6,-1,-2
14:49:08.038391,-1,-2,-3,20,32,0,0,-3
14:49:08.046383,-2,-1,-1,1,13,2,-2,-2
14:49:08.061375,-1,-4,1,-1,-2,-1,2,0
14:49:08.061375,-3,-5,-4,-1,-5,0,-3,-3
14:49:08.076365,3,1,-1,0,-1,2,-2,1
14:49:08.083363,-2,-4,-1,0,0,2,-1,-1
14:49:08.098354,11,2,-3,2,-7,-3,1,3
14:49:08.106346,-4,0,2,0,3,1,-2,-2
14:49:08.121337,-2,1,-3,-1,-1,-1,-1,-2
14:49:08.121337,0,1,1,-3,1,-3,-2,-3
14:49:08.136331,-1,0,-2,-34,-13,-2,-2,-3
14:49:08.143326,-3,2,0,11,6,-5,-3,-3
14:49:08.158316,0,4,1,0,-3,0,-5,-4
14:49:08.166311,2,-3,0,1,1,-2,0,1
14:49:08.181299,3,0,0,-1,0,0,-1,2
14:49:08.181299,0,1,-1,3,-4,0,1,1
14:49:08.196293,-6,-3,1,4,1,-2,-4,-4
14:49:08.203288,7,-1,-1,-5,-2,0,-1,4
14:49:08.218279,3,0,-4,-4,-6,-3,0,3
14:49:08.226274,0,-1,-1,0,-5,-5,3,1
14:49:08.242262,-8,-2,-4,-1,0,-4,-3,-6
14:49:08.242262,-3,2,1,6,4,9,-4,-3
14:49:08.257252,1,-1,0,-5,-12,-5,-3,-3
14:49:08.263251,1,-1,1,14,7,1,1,-3
14:49:08.279238,-2,0,-2,5,3,4,3,0
14:49:08.286238,-1,-1,0,-3,-7,-1,-1,-4
14:49:08.301225,-2,0,1,-1,7,3,0,-1
14:49:08.301225,-2,-1,-1,-3,-3,0,0,-1
14:49:08.316218,-4,-5,-5,-3,0,-3,-4,-3
14:49:08.324211,-5,-3,-1,-13,-11,-4,0,1
14:49:08.338206,1,-2,-2,7,7,-4,-4,-3
14:49:08.346200,0,0,0,-4,27,6,-2,5
14:49:08.361190,-5,-2,-4,-41,-32,3,-1,-7
14:49:08.362190,0,-2,-8,6,-26,-9,-1,2
14:49:08.383177,-1,-3,2,21,12,5,-2,-2
14:49:08.384173,0,0,0,9,2,-7,0,2
14:49:08.398167,10,2,1,3,2,4,3,12
14:49:08.406163,-2,-1,1,-4,-4,-4,2,2
14:49:08.421153,-6,-1,-6,-4,-4,0,-3,-5
14:49:08.421153,1,-3,-1,-3,-2,-2,0,-5
14:49:08.436144,2,-2,-1,19,-1,1,-2,-1
14:49:08.444137,1,2,-1,-13,-20,-3,-3,-3
14:49:08.459127,-1,-1,1,7,-52,-5,-1,-1
14:49:08.466125,-1,-4,-1,-21,-12,-8,-4,0
14:49:08.481113,-2,-1,2,8,4,-1,0,-3
14:49:08.482115,-2,3,0,-5,-7,-2,-5,-8
14:49:08.496107,-4,-2,0,-1,-3,-2,-3,1
14:49:08.503101,-4,-2,-2,-2,-3,2,-2,0
14:49:08.518090,-6,-2,0,2,-4,-2,-2,-3
14:49:08.526088,3,-1,0,4,3,-1,-2,0
14:49:08.542078,0,1,-3,-3,-7,3,-1,1
14:49:08.542078,0,-1,-1,4,0,-1,-1,-2
14:49:08.556070,1,0,-2,-7,-4,-3,-1,0
14:49:08.563064,0,-4,-4,2,7,1,2,0
14:49:08.579054,0,0,0,2,-4,-2,-1,-1
14:49:08.586051,-4,-2,-2,-3,-1,-2,0,-3
14:49:08.601042,-5,3,-1,2,-1,1,1,-1
14:49:08.602042,-7,-6,2,-1,2,0,-2,-6
14:49:08.625024,-4,-3,-2,-1,-2,-1,0,-4
14:49:08.625024,0,-1,-3,-4,-6,1,2,4
14:49:08.639016,-2,-1,1,4,1,-3,-1,1
14:49:08.646014,-2,-1,0,-28,-37,-3,1,3
14:49:08.661004,-4,-1,0,5,2,-5,-1,-2
14:49:08.668998,-7,-5,-2,-1,-1,0,0,-1
14:49:08.683988,-4,-1,0,0,-1,2,2,2
14:49:08.683988,-1,1,-1,-18,-7,-3,-6,-6
14:49:08.698980,1,-1,2,10,7,5,2,-1
14:49:08.705976,2,-4,-3,-6,-4,0,0,-3
14:49:08.720967,1,-2,-2,-5,-6,4,-2,8
14:49:08.728960,2,-1,-1,4,8,5,2,-3
14:49:08.743950,0,0,2,8,6,2,1,0
14:49:08.743950,-7,-5,-4,-18,-46,-6,-6,-7
14:49:08.758945,-5,-4,-4,1,9,-2,-3,-3
14:49:08.765939,-3,-4,-2,-4,-3,-2,0,2
14:49:08.780930,-1,-3,-3,-3,-5,-5,-3,-4
14:49:08.788925,-1,-3,1,2,0,2,-1,1
14:49:08.803918,-4,-1,-1,18,-1,-6,-4,-4
14:49:08.803918,-1,-2,-4,1,-5,-2,-1,2
14:49:08.818907,-1,1,0,1,7,-2,-3,-2
14:49:08.825902,10,3,0,9,4,1,0,11
14:49:08.841890,0,-1,-4,-10,-9,-2,-1,-3
14:49:08.848885,-4,-4,-3,5,2,-6,-1,-3
14:49:08.863876,1,3,0,0,11,5,6,4
14:49:08.863876,3,0,3,2,0,4,1,1
14:49:08.878870,-4,-2,2,2,-2,-2,-4,0
14:49:08.885865,-3,1,-1,-2,-3,2,-1,1
14:49:08.900856,-7,-5,-3,0,-4,-4,-2,-3
14:49:08.908848,-4,-2,-3,-2,-3,-1,-4,0
14:49:08.924839,0,-2,0,0,0,4,2,1
14:49:08.924839,3,0,-2,-2,-5,-4,-2,0
14:49:08.938829,4,-4,-3,2,-1,-1,-1,-4
14:49:08.945828,5,0,0,1,-1,0,1,7
14:49:08.960819,-4,-2,-2,-9,-29,-4,0,-5
14:49:08.968814,-1,-5,0,16,-2,-1,0,0
14:49:08.983802,-3,0,2,2,6,1,-1,-4
14:49:08.983802,-5,-2,-1,-7,-17,-3,0,-3
14:49:08.998792,0,2,3,2,0,-5,-2,-2
14:49:09.005790,-1,0,-2,-1,-2,0,-1,2
14:49:09.020781,-3,1,1,0,0,0,-1,-2
14:49:09.028776,-1,1,0,-1,-3,-6,0,2
14:49:09.043765,6,-1,1,0,1,2,0,4
14:49:09.044766,-4,-3,-5,-2,-1,-2,-5,-5
14:49:09.058758,-2,0,0,2,-1,0,0,-2
14:49:09.065753,-1,0,-1,-2,-2,-1,-4,-4
14:49:09.080744,-2,2,1,0,4,1,-1,-3
14:49:09.088739,0,2,-1,1,0,-1,-2,0
14:49:09.103728,0,2,0,-12,-25,-6,0,2
14:49:09.103728,-1,-3,0,7,11,3,-1,-2
14:49:09.118719,1,1,-3,-3,-5,-1,0,2
14:49:09.126713,6,2,0,-1,-3,-2,0,6
14:49:09.141704,-6,2,-3,-4,-7,-9,-5,-8
14:49:09.148699,-3,-1,-3,-4,-3,-2,-4,-4
14:49:09.163692,-4,-7,-2,0,-1,0,-4,-1
14:49:09.163692,1,-1,0,-2,-3,-1,-1,1
14:49:09.178684,2,0,0,2,2,2,3,6
14:49:09.185676,-2,2,0,0,-2,-3,0,-1
14:49:09.201666,1,-2,-4,-1,-4,-5,-3,-6
14:49:09.208662,-3,-1,-3,-1,2,-1,-1,0
14:49:09.224653,2,3,-2,-1,2,1,-1,1
14:49:09.225654,-1,-5,-3,-25,-16,-2,1,-1
14:49:09.238646,2,4,1,12,9,1,4,0
14:49:09.245641,-10,-4,-1,-3,0,-4,-5,-4
14:49:09.261629,2,3,1,3,3,2,6,6
14:49:09.268628,-4,-4,-1,-1,-3,-3,-2,-4
14:49:09.283615,-1,-3,-3,-1,-3,-2,0,-2
14:49:09.283615,-5,-2,-2,-28,-4,2,-2,1
14:49:09.298609,-4,2,-2,6,6,-3,-8,-8
14:49:09.305603,0,1,0,6,1,-2,-2,-3
14:49:09.320596,0,0,-1,-6,-14,-1,-1,-1
14:49:09.328591,0,-2,-3,2,8,1,0,1
14:49:09.343579,1,-1,-3,-2,-7,-2,-1,-1
14:49:09.344578,-1,-2,-3,-1,-1,1,-1,0
14:49:09.358570,16,-2,-2,-7,-2,-3,0,9
14:49:09.365564,-1,0,-2,1,-8,-3,1,-2
14:49:09.381559,-4,-5,-1,-1,7,7,0,-4
14:49:09.388553,-1,1,2,-2,-5,-3,1,2
14:49:09.403544,1,-1,0,24,-2,3,1,0
14:49:09.403544,-1,1,3,5,-7,-6,-1,-4
14:49:09.418532,0,-3,-2,-1,0,-5,-1,-2
14:49:09.426527,0,0,-2,6,17,0,-1,2
14:49:09.441518,4,1,0,8,3,-2,1,6
14:49:09.448516,5,5,2,4,9,6,4,6
14:49:09.463507,3,-2,2,-1,-3,0,2,0
14:49:09.464505,-5,1,0,0,-2,-3,1,-2
14:49:09.478498,-5,-4,-2,0,3,2,2,-3
14:49:09.485493,-8,-4,-4,-5,-3,-1,-1,-3
14:49:09.501482,1,0,-1,6,-10,1,-3,2
14:49:09.508476,-3,-1,-2,-1,4,0,1,-3
14:49:09.524468,-1,-1,0,-2,-2,1,2,-1
14:49:09.525468,-1,-1,-1,-2,-3,-4,1,-3
14:49:09.538460,-1,-1,-1,0,0,-2,-1,-1
14:49:09.546453,1,-5,2,-3,-7,-6,-2,0
14:49:09.561446,0,-1,-2,-1,0,0,1,1
14:49:09.568442,11,-2,-1,4,-11,4,1,2
14:49:09.583433,-1,-2,-2,-17,-17,-1,-1,-1
14:49:09.591426,-1,1,3,6,7,4,-1,-1
14:49:09.606415,0,0,0,9,1,-2,0,-1
14:49:09.607416,2,2,-1,4,6,0,1,3
14:49:09.621407,1,0,0,-3,-2,4,2,6
14:49:09.628405,-1,-2,-1,-1,5,-2,0,-1
14:49:09.643396,-1,0,2,1,-3,-5,2,0
14:49:09.651390,-2,-3,-2,2,-3,-1,3,0
14:49:09.666381,5,-4,-1,-2,-3,1,0,10
14:49:09.666381,-2,-1,-1,-3,-2,-3,-2,-6
14:49:09.681373,-4,-3,0,-1,-2,-1,1,1
14:49:09.688367,-3,0,-1,0,-9,-4,-3,-1
14:49:09.703358,-5,-3,-4,1,4,-4,-1,-2
14:49:09.711353,4,-2,-1,-1,1,-3,-4,3
14:49:09.726341,1,-1,1,1,-3,-4,-3,0
14:49:09.726341,-3,-4,1,-5,-5,-1,-2,2
14:49:09.741333,1,2,2,2,4,2,1,0
14:49:09.749327,-1,1,-3,-5,-14,1,1,-3
14:49:09.763321,-1,-1,-3,1,6,-2,-4,0
14:49:09.771315,-2,0,-2,-6,-5,-5,-3,-2
14:49:09.786303,-2,-2,1,-1,-1,-1,0,1
14:49:09.786303,1,0,-1,-1,-2,-1,-4,-3
14:49:09.801298,2,-2,-1,-17,-27,-3,2,0
14:49:09.808290,-3,-3,-2,7,10,-1,-1,0
14:49:09.824282,-1,0,-1,-3,2,0,0,-1
14:49:09.831279,2,0,-2,-1,-11,0,2,1
14:49:09.846267,2,0,-3,-17,4,3,-3,3
14:49:09.846267,-4,-4,-2,5,4,-4,-3,-6
14:49:09.861260,-3,1,2,-1,-5,-5,-6,-6
14:49:09.868256,-2,-4,-3,-1,-4,2,0,2
14:49:09.883247,-1,0,-1,-3,-1,-4,0,-1
14:49:09.892239,-3,-4,-4,0,-10,-5,-3,1
14:49:09.906231,-4,-1,0,-1,2,2,0,-1
14:49:09.906231,7,0,-1,4,0,-3,1,1
14:49:09.921223,2,-4,-3,-1,-9,-4,3,2
14:49:09.928218,-1,-1,-5,20,-1,0,0,-1
14:49:09.944209,1,3,1,2,-6,-2,-3,-3
14:49:09.951204,-6,-5,0,-22,-23,-4,-5,-1
14:49:09.966192,-3,-2,0,5,2,-3,-4,-1
14:49:09.966192,-1,1,-3,-4,11,-3,0,2
14:49:09.981186,-1,3,-1,3,-6,-5,-1,0
14:49:09.988182,1,0,-3,-7,10,1,-1,-2
14:49:10.003174,0,0,2,14,9,-1,5,1
14:49:10.011167,-2,-3,1,-12,-21,-1,-1,0
14:49:10.026155,-2,1,1,4,-6,0,1,0
14:49:10.027156,-2,-1,-5,2,0,-2,-1,-2
14:49:10.042147,-2,-6,-2,1,4,2,-1,-3
14:49:10.048148,-2,0,1,-4,-6,0,-1,-1
14:49:10.063134,0,0,0,11,6,-6,-3,-4
14:49:10.071130,-1,-2,3,29,13,4,4,3
14:49:10.086117,-2,0,-2,4,1,0,0,2
14:49:10.086117,-9,-3,-5,1,-2,-2,-2,-7
14:49:10.101112,2,1,1,-1,-6,5,2,3
14:49:10.109106,-2,-4,0,4,4,-4,-4,-4
14:49:10.125094,-1,0,-2,-6,-3,0,1,2
14:49:10.131093,-4,1,0,-3,-1,3,4,-1
14:49:10.153079,1,0,4,4,2,6,3,2
14:49:10.154078,2,2,3,-19,-21,-4,-1,-2
14:49:10.161074,-3,0,-1,8,6,-1,-3,-2
14:49:10.168068,-1,-1,0,-21,-19,-1,-2,-6
14:49:10.184057,-1,-1,-3,6,-2,0,1,-5
14:49:10.192053,-3,0,-3,-25,4,-3,1,-3
14:49:10.206046,5,1,3,2,-4,-1,-2,-1
14:49:10.207046,1,0,-2,-3,-3,-3,0,2
14:49:10.221037,-4,0,0,3,6,0,-1,-2
14:49:10.229029,-2,-1,0,-3,-8,-3,1,-1
14:49:10.244020,0,-3,-1,12,8,-3,-3,-4
14:49:10.251018,-3,-3,1,4,8,-1,0,-2
14:49:10.266010,-5,1,0,4,2,-1,-2,-2
14:49:10.267006,-5,0,4,-1,2,2,-1,-5
14:49:10.281000,-4,-3,0,-3,-8,-1,1,-1
14:49:10.287992,0,1,0,0,-8,0,2,2
14:49:10.303986,-3,-3,1,2,2,1,-2,-5
14:49:10.310982,1,-3,-2,-25,2,1,-3,1
14:49:10.325973,-2,0,-2,4,11,-3,-2,0
14:49:10.326969,-4,-2,-1,6,20,-3,-5,0
14:49:10.341960,3,-4,-2,0,5,0,2,9
14:49:10.347958,3,0,0,7,-10,0,0,4
14:49:10.363948,-1,-2,0,10,1,-1,-3,-1
14:49:10.370944,-1,1,-1,20,21,-3,2,5
14:49:10.385935,-2,2,0,3,6,0,-2,-5
14:49:10.386934,-2,-4,-1,-1,-3,-2,-6,-7
14:49:10.400925,-1,0,1,-6,-8,3,4,4
14:49:10.408922,-2,-4,0,1,3,-2,-1,-4
14:49:10.423908,-8,-3,1,0,2,-1,-4,-3
14:49:10.430907,1,0,1,3,21,0,1,0
14:49:10.445897,-1,1,1,-19,-16,-3,-2,1
14:49:10.446897,4,-3,-1,23,0,-7,-2,2
14:49:10.460888,-2,-1,-1,3,0,1,-4,-7
14:49:10.468884,-2,-1,0,-19,-20,-2,-2,-1
14:49:10.483875,0,-1,1,7,5,1,-2,-2
14:49:10.491867,-2,0,-2,0,-2,-3,1,-3
14:49:10.505860,-5,-5,-2,-4,-1,-3,-3,-3
14:49:10.506857,15,2,-2,-3,0,3,2,3
14:49:10.528843,2,1,5,13,16,-6,-1,0
14:49:10.528843,-1,-2,-6,-15,-14,-5,-3,-3
14:49:10.543837,-3,0,-1,-14,9,1,1,-5
14:49:10.550832,0,-2,0,-25,-54,-2,-1,-1
14:49:10.565823,-2,1,-1,4,3,-4,-1,-1
14:49:10.573818,0,-1,0,1,1,-3,-5,-2
14:49:10.588806,1,-3,-2,7,4,3,-1,-2
14:49:10.588806,0,2,-1,-13,-15,-3,-3,-4
14:49:10.603800,0,0,0,1,-3,1,4,-4
14:49:10.610796,-10,-4,-1,1,3,-3,-2,-2
14:49:10.626785,-3,0,-2,4,7,-4,0,-1
14:49:10.633781,-1,0,0,-13,-26,-1,-4,-3
14:49:10.648769,-1,-1,-2,2,3,1,-3,-4
14:49:10.648769,-2,-3,-3,2,0,1,-4,-3
14:49:10.663763,0,-3,1,-1,-2,-5,0,-3
14:49:10.670758,-2,-2,-2,-2,-2,0,1,-1
14:49:10.685749,4,1,1,-8,5,5,2,0
14:49:10.693745,2,1,2,5,2,-3,2,2
14:49:10.708732,0,-1,2,3,14,4,1,1
14:49:10.709734,-4,-4,-2,2,1,0,1,-1
14:49:10.723723,0,-1,2,14,5,2,-1,4
14:49:10.730721,-3,-3,-3,-2,5,0,-2,1
14:49:10.745711,-1,0,-1,-10,-20,-3,-2,-1
14:49:10.753704,0,3,3,5,17,4,4,3
14:49:10.768694,-3,-1,3,-1,2,-1,-2,-3
14:49:10.768694,-2,1,1,0,-7,-7,-6,-5
14:49:10.783688,-4,-5,-3,7,5,0,0,0
14:49:10.791684,-5,0,-1,0,-11,-2,-4,-3
14:49:10.805674,4,3,0,3,-1,-1,2,0
14:49:10.813669,-1,-2,-2,4,4,0,2,-3
14:49:10.828657,-1,-3,-1,-1,-1,-1,2,-2
14:49:10.828657,5,1,0,12,16,3,-1,1
14:49:10.843651,-8,2,-2,1,-1,-4,-1,-3
14:49:10.851643,-2,-3,-3,-1,4,-1,-5,-2
14:49:10.866637,-1,-1,1,3,-2,3,1,0
14:49:10.873632,0,1,0,-1,-1,-2,0,1
14:49:10.888621,1,0,0,5,4,0,-1,3
14:49:10.888621,-1,-3,-3,1,-5,-3,1,-3
14:49:10.903614,-1,-1,-1,3,5,0,1,2
14:49:10.911609,8,0,-1,-17,-13,1,-3,4
14:49:10.926600,-5,-2,-3,-2,-5,-3,-5,0
14:49:10.933593,-1,0,0,-6,-3,-3,-1,-2
14:49:10.948586,-1,-4,-1,9,19,-1,-2,1
14:49:10.948586,-4,-4,-5,0,3,1,-1,0
14:49:10.963574,-2,-1,0,-17,-13,-2,-4,1
14:49:10.970569,-2,-2,0,-21,-2,-8,-4,-4
14:49:10.986559,-6,-2,-4,3,2,0,-1,0
14:49:10.993558,1,2,-2,-1,0,-1,2,1
14:49:11.008549,-3,-2,-2,-2,3,0,-1,-4
14:49:11.009549,-1,-1,0,4,-3,-3,0,-1
14:49:11.024537,-1,-3,0,-15,-28,-4,-1,4
14:49:11.030534,-6,-3,-1,-2,3,-5,-4,-8
14:49:11.046525,0,2,-1,0,-1,-2,-6,-2
14:49:11.053521,-6,-4,-2,1,5,-1,-1,-2
14:49:11.068512,-4,-3,-4,0,0,1,0,1
14:49:11.068512,1,-3,0,-4,-5,-5,4,1
14:49:11.083503,-5,0,-1,1,-4,-1,-1,3
14:49:11.091495,3,-1,-1,1,2,0,2,2
14:49:11.106485,-2,0,-2,0,-1,-2,-2,-2
14:49:11.113483,-2,-3,-3,-1,-4,1,2,1
14:49:11.128474,-2,-1,-1,-4,0,-2,-2,-3
14:49:11.129472,-2,-2,1,1,0,-3,-4,0
14:49:11.143465,-6,0,1,-3,1,-4,-2,-4
14:49:11.151457,0,-1,-2,-2,0,0,-2,0
14:49:11.166448,-4,-1,0,-1,3,1,-2,-2
14:49:11.174445,0,0,0,0,-4,-2,1,1
14:49:11.188437,-1,-2,2,2,-1,-2,-2,-2
14:49:11.189434,-2,-2,-2,3,9,-1,1,-4
14:49:11.203427,-1,-5,-3,1,10,1,-2,-4
14:49:11.211421,0,2,5,2,1,-1,-5,-9
14:49:11.226414,-3,0,3,-2,-4,3,4,-1
14:49:11.233409,1,-1,1,0,-1,-1,0,2
14:49:11.248400,0,-1,-2,1,-4,2,1,-1
14:49:11.249397,-1,0,-3,-3,4,3,-2,2
14:49:11.263390,3,1,3,5,-1,4,3,2
14:49:11.270386,-1,-1,-2,-2,3,1,0,-1
14:49:11.286373,1,2,-4,3,0,2,0,-2
14:49:11.293372,8,1,0,-1,-2,-1,1,6
14:49:11.308360,-3,-2,-2,1,-1,-1,0,-4
14:49:11.309361,-2,-4,2,-3,2,-1,1,-1
14:49:11.324350,-3,-2,-1,2,-3,-3,-1,0
14:49:11.331345,1,-3,-3,0,2,1,-1,-2
14:49:11.346337,4,-1,-2,-2,-1,1,2,2
14:49:11.353334,-1,2,2,4,4,-2,-1,-1
14:49:11.368323,-1,-3,-1,-4,-10,-4,-1,2
14:49:11.369322,2,1,1,-7,-2,-2,3,1
14:49:11.383316,-4,-4,-3,-15,-15,-2,1,0
14:49:11.391310,-5,-3,-1,2,8,0,-4,-3
14:49:11.406302,-3,-1,0,0,-5,-1,-1,-3
14:49:11.413298,-8,-1,0,-2,0,-1,0,-4
14:49:11.428285,-3,-1,-3,0,-2,-3,-3,-4
14:49:11.429286,-3,-4,-3,0,-4,-4,0,2
14:49:11.443279,-5,-1,2,-3,0,1,-2,-2
14:49:11.451274,2,-3,-4,-5,-2,-1,-1,-3
14:49:11.466265,-1,-1,-1,0,-4,-6,-2,-3
14:49:11.474258,-2,-1,1,1,3,2,0,1
14:49:11.488251,1,1,-1,1,8,-2,1,-1
14:49:11.496246,7,1,1,-1,-4,-3,-2,13
14:49:11.511234,-2,-4,1,-2,-2,-2,0,0
14:49:11.512236,-4,-1,-3,-3,0,-1,0,0
14:49:11.526226,8,0,-3,-1,-2,1,-1,-1
14:49:11.533223,-2,0,1,3,0,-1,-1,1
14:49:11.548214,-2,-6,-2,-5,-4,-7,-5,-4
14:49:11.556209,-1,-2,-1,1,6,1,-1,0
14:49:11.571197,-1,-2,-1,2,-2,-3,-1,-2
14:49:11.571197,3,-1,0,2,4,2,2,4
14:49:11.586190,-3,-2,-1,5,11,-2,-2,0
14:49:11.593186,-4,-4,2,1,-6,-1,5,3
14:49:11.609173,-3,-2,-3,-3,-5,2,-3,-4
14:49:11.616172,1,0,-2,0,1,-5,-5,2
14:49:11.631164,-9,-1,3,-1,-3,-7,-4,-2
14:49:11.631164,-3,-1,0,-3,-4,-1,2,-3
14:49:11.646153,-4,-2,-1,0,-1,-4,-6,-4
14:49:11.653149,-3,-3,-1,-2,-1,-2,-4,-2
14:49:11.668139,-1,-1,-1,0,2,-2,-2,1
14:49:11.676134,-2,-2,-6,-1,-5,-7,-3,-3
14:49:11.692122,-3,-4,2,4,5,1,-5,-7
14:49:11.692122,-4,-1,-1,-29,-40,-7,-2,-3
14:49:11.707113,-5,-2,-4,0,13,2,-2,-3
14:49:11.714112,1,0,-2,-3,-2,0,1,-2
14:49:11.729099,2,3,-1,1,-5,-4,-1,-1
14:49:11.736097,-1,1,-3,-2,-4,-1,-2,-2
14:49:11.751088,0,1,-1,0,-2,-2,-1,-1
14:49:11.751088,-7,-2,-1,-1,0,0,-5,-7
14:49:11.766079,-2,-2,-3,-1,0,-1,-2,-1
14:49:11.774072,-4,-1,0,-5,-9,-5,-1,-6
14:49:11.789064,0,0,2,2,3,2,-3,-2
14:49:11.796060,-3,1,-3,-7,-3,0,-2,-5
14:49:11.819043,4,-1,-2,-3,5,-1,2,-3
14:49:11.819043,3,0,-1,-3,-10,-1,1,0
14:49:11.826042,-1,-3,-1,-2,2,-1,-1,-3
14:49:11.833036,-1,0,0,1,-2,0,-1,2
14:49:11.848025,-1,-1,-2,2,-1,-3,-1,-3
14:49:11.856023,5,1,-1,-3,0,2,3,5
14:49:11.871013,-5,0,1,-1,3,-4,-3,-8
14:49:11.871013,2,1,0,2,8,-1,0,-1
14:49:11.886005,-3,-2,-2,-2,3,-4,0,-1
14:49:11.893997,-2,5,3,-1,-10,0,0,0
14:49:11.908991,-4,-1,-5,-2,0,0,-1,-3
14:49:11.915986,2,-1,-2,-1,0,4,0,-1
14:49:11.930976,-2,-3,-2,-1,0,1,0,-2
14:49:11.931973,2,-2,-2,-3,-2,-6,0,0
14:49:11.945967,2,1,0,1,3,-2,1,-2
14:49:11.952962,4,-1,-3,2,-1,-3,2,-2
14:49:11.968950,-6,-2,1,3,2,6,4,1
14:49:11.975949,-1,1,-4,-8,-8,-3,-1,0
14:49:11.991937,1,-2,-2,1,5,-1,0,-1
14:49:11.991937,-1,1,-2,-2,-3,-1,0,3
14:49:12.005929,-1,0,0,-1,-3,-1,-2,-1
14:49:12.013926,-6,3,-3,-1,4,-1,1,-1
14:49:12.028916,3,-3,-1,-1,-9,-6,1,2
14:49:12.035911,-1,-3,-3,13,13,-4,-6,-7
14:49:12.050902,-5,1,-3,-2,1,7,2,-3
14:49:12.051902,-2,-1,-2,1,2,-4,0,-1
14:49:12.065892,5,2,2,1,6,0,-6,-2
14:49:12.074885,-2,-1,0,4,-6,-4,-3,-2
14:49:12.088876,0,-1,-1,8,3,-2,-3,-1
14:49:12.095874,-2,-3,0,-4,-3,-1,-1,0
14:49:12.110865,1,-1,-1,-2,-4,-5,-3,-2
14:49:12.111865,-3,1,-2,-1,-1,1,-2,-4
14:49:12.125856,-5,-4,0,0,3,4,3,-1
14:49:12.141846,-1,1,2,0,3,3,1,-1
14:49:12.148842,2,-1,-4,-3,-1,-1,-3,-4
14:49:12.155836,-3,-1,0,-2,-1,-2,-2,-2
14:49:12.170828,-5,-2,0,-17,-17,3,0,-4
14:49:12.171827,5,0,-3,7,6,-5,-4,-4
14:49:12.185819,-2,1,2,3,0,-5,-2,-4
14:49:12.193815,2,1,-1,0,1,0,-1,-2
14:49:12.208805,-1,1,-1,1,-4,-4,-4,-2
14:49:12.215800,2,0,-2,0,-6,-4,3,7
14:49:12.230790,-3,-1,-3,0,0,-1,-6,-10
14:49:12.231789,-6,1,1,2,1,-9,-6,2
14:49:12.245781,0,2,0,-2,-1,0,0,-5
14:49:12.253775,-4,-1,1,0,0,-1,-3,-5
14:49:12.268768,2,2,1,-2,-4,-3,0,2
14:49:12.275763,-3,-3,0,0,1,-7,-5,-4
14:49:12.291750,-2,0,-3,-15,-15,0,-3,-3
14:49:12.291750,-3,0,-2,-1,0,0,0,-1
14:49:12.313736,2,0,2,6,9,-1,-5,-1
14:49:12.313736,-2,-4,0,-9,-5,-2,-4,-2
14:49:12.328729,1,0,0,-2,-2,1,0,2
14:49:12.335725,1,-4,-1,0,-8,-3,0,0
14:49:12.358709,-2,0,-4,-6,-3,-2,0,2
14:49:12.359711,-6,0,0,0,-1,-1,0,-4
14:49:12.365706,0,-1,1,-1,-2,0,0,1
14:49:12.374699,2,-3,1,-2,-6,-2,-5,-7
14:49:12.388692,-3,1,-1,-2,-10,0,-6,0
14:49:12.395688,2,3,0,5,3,3,-1,1
14:49:12.410679,-1,-1,3,12,13,0,0,3
14:49:12.411678,-1,-2,0,-7,-17,-2,-1,-3
14:49:12.433668,-4,0,-1,1,0,-3,-2,-4
14:49:12.433668,7,-2,-1,2,-3,-4,-4,1
14:49:12.448656,0,0,0,-1,-2,3,2,-4
14:49:12.455650,-3,0,-2,-2,-3,-2,-1,-6
14:49:12.470643,0,-1,-1,-1,1,1,-1,3
14:49:12.478637,-1,-1,0,0,11,3,0,1
14:49:12.493629,8,0,-3,1,1,0,1,4
14:49:12.494627,-5,-2,2,2,2,-5,-3,-3
14:49:12.508615,0,0,-3,-8,2,-2,2,0
14:49:12.515613,1,-1,-3,-3,-1,-2,0,-1
14:49:12.531604,2,2,-1,0,-2,2,-3,3
14:49:12.538599,-1,4,0,-1,-2,-2,2,1
14:49:12.553590,-8,0,1,4,1,-1,-7,-5
14:49:12.561582,-8,-5,-2,0,-1,-2,-1,-4
14:49:12.568581,5,-1,-1,1,-5,-2,-1,9
14:49:12.576576,-2,-4,-3,-4,2,-3,-1,-5
14:49:12.591565,0,-1,0,-4,-4,-2,1,1
14:49:12.598562,4,0,0,3,9,-2,-1,3
14:49:12.613553,-4,-3,-2,5,9,2,-1,-1
14:49:12.613553,4,2,-3,2,-1,-1,0,5
14:49:12.628544,0,0,0,0,2,2,-2,2
14:49:12.635536,-2,1,-1,1,0,2,3,-2
14:49:12.651527,0,2,-2,0,-1,-1,-2,-5
14:49:12.658523,-7,-2,-2,-5,-8,0,0,-3
