timestamp,emg1,emg2,emg3,emg4,emg5,emg6,emg7,emg8
16:25:43.616296,2,0,-5,-4,-1,0,2,1
16:25:43.624289,-4,-2,0,-1,-6,0,1,2
16:25:43.641279,1,-1,0,-2,1,-2,0,0
16:25:43.642280,-1,-2,-1,2,-2,-3,0,3
16:25:43.652272,-3,-2,0,-2,0,-2,1,0
16:25:43.667263,-2,2,-3,-1,1,2,1,0
16:25:43.675259,1,-2,0,-3,0,1,-2,0
16:25:43.682254,-3,-1,0,1,-2,-3,-2,-1
16:25:43.697245,1,0,-2,0,0,-2,-2,2
16:25:43.698244,-1,-2,-2,0,0,2,-2,-3
16:25:43.712236,-2,-1,-1,-1,-4,0,-1,-1
16:25:43.720231,-2,-1,-1,-4,-4,1,1,0
16:25:43.735222,-1,-1,-2,-2,-1,-1,-3,0
16:25:43.742218,-2,-2,-1,-3,-1,0,1,0
16:25:43.757207,-2,-3,0,0,1,0,-1,-1
16:25:43.758207,-2,-1,1,-3,0,-2,-1,0
16:25:43.772205,-2,-6,-1,2,-2,-3,0,0
16:25:43.780197,-1,-1,0,1,-2,1,-4,-2
16:25:43.795187,-2,-1,1,-3,-1,3,-1,-1
16:25:43.803182,0,-2,-1,-1,0,0,-1,0
16:25:43.818173,1,0,1,-2,-1,-1,1,-4
16:25:43.818173,1,0,-5,-1,-2,4,3,1
16:25:43.833161,-3,1,-3,-1,-3,-1,1,-1
16:25:43.840160,-3,-2,0,0,-2,0,-1,1
16:25:43.855150,1,-2,-3,-3,0,0,1,4
16:25:43.862146,-1,0,-2,-3,-1,1,2,1
16:25:43.877134,1,-1,1,-3,-3,-3,0,-1
16:25:43.878136,0,0,-2,3,0,0,-4,-1
16:25:43.893128,-2,-1,-3,0,0,-2,-2,-3
16:25:43.915110,-3,-4,2,-2,-2,0,1,0
16:25:43.916112,0,-1,-1,-2,-1,0,2,-2
16:25:43.923109,1,1,-2,-3,-1,-1,-1,0
16:25:43.937096,0,-1,-3,-2,-2,-1,-3,1
16:25:43.938097,-4,-3,-2,-3,-2,0,0,0
16:25:43.953087,-1,-1,-1,-6,-2,1,-1,0
16:25:43.960086,0,-1,0,1,-4,0,2,2
16:25:43.975076,-3,-1,0,-4,-2,-1,-2,1
16:25:43.983070,0,-1,0,-1,2,-1,-2,0
16:25:43.998059,0,1,0,-4,-4,0,-2,-2
16:25:43.998059,-3,-4,-3,-2,-1,1,2,1
16:25:44.013053,-3,2,0,1,0,1,-2,-1
16:25:44.020047,1,-1,-2,0,-1,1,-2,3
16:25:44.035040,-1,0,1,2,-2,2,1,1
16:25:44.043031,0,2,0,-3,-2,1,-1,-4
16:25:44.058025,-2,1,-2,-1,0,-4,-2,1
16:25:44.058025,-3,0,-1,0,-1,3,2,0
16:25:44.073014,-2,-1,0,1,-2,-1,0,1
16:25:44.080012,0,0,-1,1,-3,-2,-2,-3
16:25:44.095003,-2,-3,-2,2,-2,0,1,-1
16:25:44.102994,-1,0,0,-2,-2,-2,0,2
16:25:44.117985,-1,-1,0,-2,-3,0,1,-1
16:25:44.117985,1,-3,2,2,2,4,1,2
16:25:44.132980,-2,-1,1,-1,-3,-2,-2,0
16:25:44.139975,0,-1,0,-1,-2,-1,2,0
16:25:44.154963,-1,0,-3,2,0,-2,0,-4
16:25:44.162959,-4,-2,-1,0,1,-1,0,-2
16:25:44.184947,-1,-2,-1,0,-1,-2,-2,-2
16:25:44.185944,1,-4,-4,0,0,-1,-4,1
16:25:44.199938,-2,-2,-3,0,-1,3,0,0
16:25:44.200935,1,-1,0,0,-2,0,1,2
16:25:44.216925,-1,1,-2,-4,-2,0,1,2
16:25:44.222924,-2,2,-1,-1,-3,0,-2,2
16:25:44.237915,0,-1,-1,0,-5,-2,-1,-2
16:25:44.244909,0,0,-1,2,-1,0,-1,-2
16:25:44.259901,2,0,-2,-1,-1,0,0,1
16:25:44.260900,1,-3,-1,-1,0,2,-2,0
16:25:44.274889,-5,-4,-1,2,0,-3,-2,1
16:25:44.282884,-3,1,1,0,-2,2,-2,-5
16:25:44.297877,0,-1,-1,0,-2,-2,1,-3
16:25:44.304870,-1,-1,-2,1,1,-1,-2,-1
16:25:44.319864,-1,-3,0,-2,-1,0,1,-1
16:25:44.320861,0,-2,-1,2,2,1,0,2
16:25:44.335851,0,1,-1,1,-3,1,-1,0
16:25:44.350846,2,-2,-1,-1,-1,1,2,4
16:25:44.357838,1,-1,0,0,-1,0,-3,0
16:25:44.365833,0,-2,0,0,1,-4,0,0
16:25:44.379826,-1,0,-1,-4,-1,-2,1,4
16:25:44.380825,-2,0,-1,-3,-3,-3,-1,-2
16:25:44.402813,4,-1,-1,0,1,3,0,-1
16:25:44.403810,-1,0,-4,1,-1,0,2,3
16:25:44.424796,-1,0,-2,0,-1,-2,0,-1
16:25:44.425799,-3,-2,0,-1,-3,-1,3,0
16:25:44.439788,-2,-1,-1,1,-1,-1,2,0
16:25:44.440787,-3,-2,1,-1,0,2,3,1
16:25:44.454779,0,-3,2,1,0,1,1,0
16:25:44.462776,-2,-4,2,-3,-1,0,-2,-2
16:25:44.477767,-3,2,-1,0,-1,-1,1,1
16:25:44.485765,-2,-3,-2,-1,-1,-3,-1,-1
16:25:44.499751,3,-2,-2,-1,-2,-2,-1,-3
16:25:44.500752,-1,-2,-1,0,0,3,-3,1
16:25:44.515741,-3,0,1,-1,-3,1,0,-1
16:25:44.522739,0,2,0,-1,-2,0,2,1
16:25:44.537730,-1,-1,-1,-2,0,0,-1,-4
16:25:44.544722,0,-2,3,2,3,4,0,4
16:25:44.559714,-2,0,1,-1,-1,-3,-2,-2
16:25:44.560713,-4,-2,-4,-1,-2,2,1,0
16:25:44.575707,-3,0,-2,-1,1,-1,0,0
16:25:44.582700,0,0,0,-2,0,-2,-2,0
16:25:44.597693,0,-2,-1,-1,0,-2,0,2
16:25:44.605685,-2,1,-2,-3,-1,-3,0,2
16:25:44.620676,-2,0,-1,0,-1,3,0,-1
16:25:44.620676,-2,0,0,1,-1,-2,-2,-3
16:25:44.642666,-1,1,1,-3,0,-1,1,0
16:25:44.643662,-5,0,-1,-2,-5,-2,-1,1
16:25:44.657653,-3,-2,-1,1,2,3,-4,-1
16:25:44.665649,0,0,0,-1,-2,-1,0,0
16:25:44.680639,2,-1,0,-1,-1,1,-4,-1
16:25:44.680639,0,0,0,-2,2,0,-1,-1
16:25:44.695630,1,-1,0,-2,-1,0,-1,-1
16:25:44.710621,-5,1,-1,-2,1,-1,-2,-2
16:25:44.717619,-1,-2,1,-1,0,-1,-2,-1
16:25:44.725611,-1,-1,-2,-3,-2,0,-2,1
16:25:44.748598,0,-2,0,1,0,0,-2,0
16:25:44.748598,3,0,-1,-1,-3,0,-1,2
16:25:44.755593,0,0,-2,1,0,-1,-1,-3
16:25:44.762592,3,1,-1,-2,-2,0,-3,2
16:25:44.777582,-1,1,1,-3,0,-3,-1,-1
16:25:44.792573,-1,-1,2,-1,-2,-2,0,1
16:25:44.800568,-3,-3,-2,-2,0,-1,-2,-1
16:25:44.800568,2,0,0,1,-3,1,2,0
16:25:44.815557,-1,0,2,0,-1,-1,-3,-1
16:25:44.822554,-4,-2,-2,-3,-4,0,2,1
16:25:44.845539,-2,-5,0,-2,0,0,0,0
16:25:44.845539,-3,-2,0,3,1,0,-2,-2
16:25:44.860529,-3,-2,0,-1,-2,-1,-2,0
16:25:44.867528,-2,-3,-1,-2,-3,-4,-3,0
16:25:44.875519,0,0,-2,-3,0,0,-2,-2
16:25:44.882515,0,-2,0,-2,-1,-4,0,-3
16:25:44.897508,0,0,0,0,0,0,0,1
16:25:44.905503,0,-1,-5,-3,-2,-1,0,-1
16:25:44.927490,-3,-2,-3,-1,-1,0,0,1
16:25:44.928489,0,-1,-1,-2,0,1,1,-1
16:25:44.935485,-4,-2,0,-2,0,-2,-3,-2
16:25:44.942481,-2,-1,-1,-4,-1,0,0,1
16:25:44.957470,-3,-1,-1,-5,-3,1,-1,-4
16:25:44.965464,-2,-1,-1,-1,-3,2,-1,-1
16:25:44.980457,0,-3,-3,0,-5,-1,1,-2
16:25:44.987453,-4,-2,0,-3,-2,-4,-3,0
16:25:44.995450,-2,-1,-1,3,-2,-2,1,-1
16:25:45.002444,-5,-3,2,-1,0,0,0,1
16:25:45.017433,-1,1,0,-1,-2,-2,1,0
16:25:45.025430,-2,-3,0,6,4,1,-3,-1
16:25:45.040421,1,-3,-1,-7,-6,0,2,0
16:25:45.047416,-1,0,0,2,4,3,1,1
16:25:45.055410,-3,-3,-3,-4,-2,-4,-3,-1
16:25:45.062407,-3,-5,1,-4,2,2,2,1
16:25:45.077395,-1,0,-2,-1,-2,2,2,1
16:25:45.085393,1,-2,-1,-3,-4,-1,-2,0
16:25:45.100384,0,-2,-2,0,3,-2,1,2
16:25:45.107378,-1,-1,-4,-1,-1,-2,-2,0
16:25:45.122370,-2,0,-5,-4,-3,-5,0,-2
16:25:45.123369,0,0,0,3,-1,-1,2,2
16:25:45.137358,-3,-1,-2,1,-1,0,1,1
16:25:45.145353,0,1,1,-3,3,0,2,-4
16:25:45.160347,-7,-1,1,1,1,-1,-3,-1
16:25:45.167339,4,-1,0,-3,-4,1,2,3
16:25:45.183333,0,0,1,1,1,0,-1,-2
16:25:45.184332,0,0,1,-2,-1,-3,0,2
16:25:45.205319,4,-1,0,1,0,-2,-1,-2
16:25:45.206316,-1,0,-4,-2,-3,-5,2,0
16:25:45.220310,-2,1,0,-4,0,0,-1,0
16:25:45.235301,-3,0,0,4,6,-3,2,2
16:25:45.242296,-2,-2,-2,6,0,-1,-4,-2
16:25:45.243294,-1,-3,1,-1,-1,-2,1,2
16:25:45.257285,0,0,-1,20,21,-1,1,-1
16:25:45.265282,2,-1,3,-16,-18,3,-2,2
16:25:45.280273,1,2,0,7,-1,-5,1,-1
16:25:45.287266,1,-1,-11,21,58,10,2,4
16:25:45.302256,-7,-4,-14,3,32,-9,-5,-4
16:25:45.303257,-3,1,1,13,-15,-1,0,3
16:25:45.318248,6,1,12,-13,-6,8,2,2
16:25:45.325245,-5,2,3,61,5,-10,-3,-1
16:25:45.340236,5,4,30,27,53,3,3,0
16:25:45.347229,4,-2,-30,-40,79,8,6,4
16:25:45.362219,6,6,-33,-93,-128,-21,2,3
16:25:45.363220,-17,-14,-7,54,112,0,-11,-15
16:25:45.377210,8,16,71,35,-128,-13,-1,4
16:25:45.385209,2,-14,-39,-77,-42,16,7,5
16:25:45.400199,-5,-3,-19,-115,-128,-69,-12,-6
16:25:45.407194,3,7,-4,98,11,10,2,2
16:25:45.423185,-6,-20,-33,-128,9,-3,-4,-5
16:25:45.424181,-11,-23,-74,-38,-128,-18,-4,-7
16:25:45.438174,11,25,-17,-128,-128,-30,7,5
16:25:45.445168,-19,-33,-24,35,-50,-48,-14,-15
16:25:45.460162,-8,5,-24,95,127,39,-6,-10
16:25:45.468156,-15,-34,-32,25,127,-11,-6,0
16:25:45.483145,25,38,17,124,127,122,29,21
16:25:45.483145,-14,-46,-79,-128,9,-103,-20,-4
16:25:45.498136,5,5,55,127,127,127,26,8
16:25:45.505135,-19,2,20,20,-44,-100,-38,-23
16:25:45.528121,6,26,92,-113,127,127,17,7
16:25:45.528121,24,-7,-59,-128,-128,-27,12,24
16:25:45.550107,-11,-17,56,-17,-71,1,-2,1
16:25:45.551103,22,41,-34,-128,-128,-72,13,10
16:25:45.558099,-60,-103,-33,105,127,-23,-31,-29
16:25:45.565097,49,80,78,-103,45,41,35,33
16:25:45.580088,-32,-64,-66,9,127,-37,-23,-19
16:25:45.588084,56,107,39,-39,127,9,24,31
16:25:45.603074,-83,-128,-71,127,127,-28,-40,-34
16:25:45.604078,53,95,-10,-128,-128,26,27,27
16:25:45.618062,-24,-27,32,127,127,26,-15,-18
16:25:45.625061,15,16,-8,-114,-128,-1,8,9
16:25:45.640051,16,13,24,-12,-19,1,8,8
16:25:45.648045,-4,-22,-12,72,127,22,4,4
16:25:45.663037,24,47,41,4,-57,8,5,7
16:25:45.664034,-41,-61,-25,21,127,37,-17,-22
16:25:45.678025,-1,-15,-24,-8,127,13,1,4
16:25:45.685024,19,47,-25,-128,-128,-59,-5,3
16:25:45.700015,-28,-26,-5,0,104,66,-5,-15
16:25:45.708010,80,115,16,0,70,35,10,28
16:25:45.722998,10,1,-28,-115,127,-24,-15,1
16:25:45.722998,36,52,52,127,127,110,17,17
16:25:45.737988,12,33,37,81,127,-28,3,10
16:25:45.744987,15,4,36,127,127,12,5,12
16:25:45.759978,26,17,11,-79,127,36,8,6
16:25:45.767972,15,3,-14,12,127,1,15,17
16:25:45.782961,18,13,-11,-47,-128,1,13,10
16:25:45.783960,-11,4,37,127,-128,-33,-8,-4
16:25:45.797951,21,9,33,127,127,31,12,8
16:25:45.804950,2,-6,-11,36,127,-14,2,6
16:25:45.819939,-2,-23,-27,-28,-128,-33,7,8
16:25:45.827938,-9,-11,-36,-122,-93,9,-3,-4
16:25:45.849922,10,20,50,55,127,62,8,2
16:25:45.850919,1,1,-1,-21,-128,-17,-2,0
16:25:45.864911,-26,-85,-43,125,127,18,1,-5
16:25:45.865909,15,51,34,-44,-104,-10,-2,5
16:25:45.879902,-23,-51,-48,23,-12,20,-5,-11
16:25:45.894893,21,30,3,-29,-50,30,6,8
16:25:45.902886,31,61,57,-112,-128,2,6,6
16:25:45.902886,-35,-64,-53,1,-49,-12,-16,-18
16:25:45.917881,-21,-41,-35,-6,-47,-13,-10,-10
16:25:45.924875,20,41,14,-111,127,-30,6,11
16:25:45.939864,-4,-8,-19,-110,-128,-13,-2,-3
16:25:45.947859,9,33,28,-23,-4,10,1,0
16:25:45.962853,5,11,11,-5,30,8,2,0
16:25:45.963852,21,31,14,88,127,6,8,13
16:25:45.977844,10,32,18,-17,15,1,-1,3
16:25:45.984837,-27,-31,-24,37,27,42,-5,-8
16:25:45.999828,-14,-22,-17,15,-10,14,-2,-3
16:25:46.007825,-2,-5,-17,-54,-46,-19,-3,0
16:25:46.022816,6,9,6,-126,-128,-27,3,4
16:25:46.029809,-5,5,5,-5,-122,-11,-3,-2
16:25:46.037807,-15,-12,-13,-42,-45,-4,-8,-8
16:25:46.044800,-2,16,6,47,66,-4,-6,-5
16:25:46.059791,-5,-5,12,-3,-74,-27,-5,-5
16:25:46.067788,9,21,15,-45,16,-2,3,7
16:25:46.082779,-16,-24,-8,-9,-54,5,-5,-7
16:25:46.097769,0,1,9,-4,-44,-8,2,3
16:25:46.104764,-1,-1,4,-29,-59,-1,-1,-3
16:25:46.105761,5,7,-4,10,-6,-10,3,-1
16:25:46.120756,6,0,30,34,53,21,7,7
16:25:46.135745,-25,-57,-50,11,-128,-27,-12,-9
16:25:46.142742,17,37,20,11,7,0,0,5
16:25:46.149736,-28,-35,-25,16,-5,-20,-11,-14
16:25:46.164728,13,3,-3,84,58,-4,6,8
16:25:46.165725,11,43,57,61,68,28,-1,-3
16:25:46.179719,-4,0,-7,-18,4,15,3,-2
16:25:46.187714,8,11,35,83,22,23,7,6
16:25:46.202705,4,8,19,-34,-128,-18,2,2
16:25:46.209701,12,17,23,-1,-128,-11,-3,4
16:25:46.224689,-1,-15,-19,-31,-35,1,5,4
16:25:46.225688,-1,3,-2,-19,-22,-4,-5,-6
16:25:46.240679,10,13,-3,-109,-128,-42,1,7
16:25:46.247677,-20,-33,-2,93,108,21,-7,-9
16:25:46.262668,9,4,21,83,43,10,11,7
16:25:46.277659,0,-18,-20,13,50,5,-3,0
16:25:46.285652,-18,-38,-2,81,-128,-5,-9,-5
16:25:46.285652,-21,-39,-42,-65,-68,5,-14,-13
16:25:46.300642,-36,-89,-67,35,127,28,0,-10
16:25:46.307641,24,99,66,-34,34,12,4,7
16:25:46.322631,48,84,88,127,127,35,15,12
16:25:46.329627,-33,-17,-16,-128,-128,-52,-17,-21
16:25:46.345615,-3,13,14,63,-128,-28,-3,-4
16:25:46.345615,-22,-15,-21,42,127,101,-3,-11
16:25:46.360608,19,31,-80,-128,-128,-59,5,10
16:25:46.367604,-4,17,31,18,127,36,-8,-10
16:25:46.382594,6,-10,-35,17,127,21,8,7
16:25:46.390586,-3,3,-4,0,127,22,2,1
16:25:46.404581,-25,-55,-42,-128,-113,-39,-8,-8
16:25:46.405579,17,36,13,0,95,-10,14,12
16:25:46.420569,7,11,10,-58,51,-4,3,6
16:25:46.427567,-5,-53,-30,18,-80,30,11,5
16:25:46.442557,15,51,57,-44,-67,-1,11,4
16:25:46.450552,-95,-128,-108,15,127,33,-25,-40
16:25:46.465540,22,17,-11,-51,-128,-19,9,12
16:25:46.465540,35,72,70,114,112,98,12,10
16:25:46.480531,-58,-119,-109,-128,-128,-9,-13,-18
16:25:46.487530,-5,11,16,36,-20,32,-7,-11
16:25:46.502520,4,-11,23,115,127,11,8,3
16:25:46.517511,27,77,30,-128,-128,-20,0,6
16:25:46.525504,-13,2,14,52,48,18,-14,-16
16:25:46.525504,7,40,8,-128,-32,-89,3,7
16:25:46.540497,83,127,127,84,127,-18,8,19
16:25:46.547493,4,-2,-22,-128,127,9,9,10
16:25:46.562483,-23,-32,-9,-100,-128,-60,-14,-12
16:25:46.570476,29,46,33,-99,101,3,4,16
16:25:46.592465,-20,-33,-8,11,27,39,-4,-13
16:25:46.593461,8,16,10,-32,-37,-12,7,8
16:25:46.600457,2,-4,-11,-63,-56,-14,-1,1
16:25:46.607456,5,2,2,8,11,1,2,0
16:25:46.622447,1,2,1,-15,-6,0,0,3
16:25:46.630441,-7,-6,-6,8,72,33,0,-6
16:25:46.652428,-16,-5,-3,-6,-30,-18,-14,-12
16:25:46.653425,-1,0,0,6,12,21,39,-17
16:25:46.660421,49,18,-11,-16,-22,-8,12,-57
16:25:46.667419,-63,-35,-22,-19,-13,0,13,-12
16:25:46.682409,52,8,7,5,12,23,94,55
16:25:46.690402,-13,2,-2,-3,-4,-15,24,17
16:25:46.705394,-86,37,14,9,10,16,-13,-119
16:25:46.705394,31,25,21,15,23,15,-128,63
16:25:46.720388,-128,-23,-13,-18,-37,-114,127,-128
16:25:46.727380,-128,-78,-16,-7,-12,-29,88,44
16:25:46.742371,-9,7,3,-2,0,28,107,-120
16:25:46.750368,26,5,-4,0,-18,-43,92,127
16:25:46.772354,-86,5,16,18,16,0,74,-44
16:25:46.773351,53,25,11,9,20,37,-24,44
16:25:46.787345,17,31,3,-5,-9,5,54,-80
16:25:46.788344,3,29,-20,-120,-104,-37,27,-43
16:25:46.802334,30,72,76,127,79,69,16,-51
16:25:46.818326,-62,-23,-42,127,-73,-97,-45,-13
16:25:46.825319,31,37,19,-128,-79,45,10,9
16:25:46.825319,-60,-18,-35,80,62,-1,-26,-52
16:25:46.840312,27,-3,-25,30,-14,55,40,58
16:25:46.855304,12,81,-39,8,-128,22,27,-8
16:25:46.862297,85,-89,54,-119,-128,-26,-43,16
16:25:46.870294,-128,16,37,127,127,79,-10,-6
16:25:46.885285,-62,-3,82,112,-29,-128,-99,-71
16:25:46.886283,11,18,27,-72,2,47,103,-13
16:25:46.900276,-37,-32,-39,57,127,-74,-31,-74
16:25:46.907269,113,22,39,74,123,60,-30,5
16:25:46.922260,-20,-9,7,-46,-15,-42,-61,-12
16:25:46.930259,-39,-9,-82,-128,-128,3,16,-23
16:25:46.945248,35,23,13,45,37,-9,-16,60
16:25:46.946248,-48,-34,8,59,32,48,65,-68
16:25:46.960239,-21,22,7,23,28,65,127,23
16:25:46.968234,38,13,11,-13,-60,-1,29,62
16:25:46.983222,-93,-5,2,38,-26,-42,-42,-9
16:25:47.005211,-5,-3,3,3,55,-22,-34,-14
16:25:47.006208,-15,1,-6,-83,127,21,2,-20
16:25:47.012204,14,0,6,112,127,52,50,75
16:25:47.027195,-22,0,-11,35,109,13,14,-16
16:25:47.028194,97,11,21,105,-5,-24,94,127
16:25:47.043188,-12,4,0,6,-21,17,5,-5
16:25:47.050183,-3,-5,-21,-88,-128,-7,-7,-10
16:25:47.065174,-30,-15,3,46,113,-7,-34,-23
16:25:47.072170,-1,1,-5,8,-33,-3,10,16
16:25:47.088157,1,16,-27,-64,-103,16,14,0
16:25:47.088157,-21,-10,-10,15,22,2,3,-26
16:25:47.103148,1,4,14,-52,-51,-26,-6,0
16:25:47.110147,52,2,5,79,127,27,19,8
16:25:47.125137,-17,-11,-11,-7,-12,-14,-9,-18
16:25:47.133132,2,6,17,38,62,19,3,-2
16:25:47.148121,7,-1,13,-12,20,20,21,20
16:25:47.148121,3,-2,-9,37,-90,-13,3,-6
16:25:47.163112,-25,-5,3,10,55,16,0,-3
16:25:47.178104,-16,-8,-14,-30,-73,-25,-13,-16
16:25:47.185101,-15,-1,0,32,96,39,-14,-14
16:25:47.193096,11,5,15,-36,-21,9,16,10
16:25:47.208083,1,-1,-6,-8,-128,5,44,-9
16:25:47.208083,1,0,8,39,12,8,21,29
16:25:47.230073,-1,1,0,-3,3,-9,8,-15
16:25:47.231071,3,6,24,-9,-41,-4,-20,-15
16:25:47.253055,-47,7,-2,-74,-51,-20,-7,-28
16:25:47.253055,39,7,19,37,30,52,42,19
16:25:47.268047,32,-8,-20,-18,-6,-30,-15,-15
16:25:47.268047,-9,-1,9,35,28,10,3,-7
16:25:47.283040,-1,-3,-8,-72,12,-10,0,0
16:25:47.290036,-4,1,-3,121,116,3,10,9
16:25:47.305027,9,1,0,-12,-14,-21,-12,-8
16:25:47.313021,-8,-8,-9,-27,-10,-21,-53,-3
16:25:47.328010,-10,-22,-12,3,-6,-1,-2,-27
16:25:47.328010,-8,-8,-7,-14,-16,-13,-14,-8
16:25:47.343001,-3,0,3,25,13,-19,-5,1
16:25:47.349999,-1,2,-1,-27,-51,-4,-6,-2
16:25:47.364989,-4,-5,-19,-35,11,-6,-7,0
16:25:47.372982,1,0,4,47,-91,-13,0,3
16:25:47.387973,3,-3,-3,-7,-8,-7,-17,12
16:25:47.387973,-6,0,1,7,0,1,-9,-5
16:25:47.402966,11,-16,-5,-11,-56,0,4,7
16:25:47.409962,-2,-1,-5,-25,-46,0,-2,4
16:25:47.424953,-3,2,12,68,31,13,-7,-3
16:25:47.432945,0,1,-6,1,1,-1,1,12
16:25:47.447936,-2,-1,-1,2,12,3,4,0
16:25:47.447936,-2,0,-3,32,33,6,1,2
16:25:47.462926,-7,2,6,7,12,-38,-19,-12
16:25:47.469925,-8,-1,-1,-3,7,8,-7,-1
16:25:47.484915,-3,-1,-6,-13,-7,-28,-69,1
16:25:47.492911,2,3,6,1,6,2,18,-8
16:25:47.507898,0,-4,-31,-65,49,0,2,-4
16:25:47.507898,-3,-2,0,23,-15,-8,-10,-2
16:25:47.522892,-27,10,2,-21,-38,10,5,-2
16:25:47.529887,24,12,13,26,-17,-1,42,49
16:25:47.544876,8,6,-14,-121,-50,13,-19,-10
16:25:47.552874,-8,0,0,33,6,15,46,-15
16:25:47.567865,5,4,9,-26,-86,-3,-26,-5
16:25:47.568863,4,0,2,-1,-46,3,14,4
16:25:47.589851,-6,-1,-4,-14,-8,2,-5,-11
16:25:47.590848,-7,1,-2,-28,-12,-4,1,-24
16:25:47.604840,1,2,4,5,-2,-17,-12,-4
16:25:47.612837,-1,5,0,-2,-23,-5,-11,-2
16:25:47.627828,4,3,0,0,4,7,-13,2
16:25:47.627828,-10,-5,-6,-5,-5,0,10,-21
16:25:47.649812,2,0,0,-2,5,12,6,5
16:25:47.650811,-1,2,-2,10,-13,1,28,-17
16:25:47.665802,-3,-1,-1,10,4,-7,-4,0
16:25:47.672800,-4,-3,0,-34,-26,-11,-3,-13
16:25:47.687791,6,-3,-1,-1,2,-4,0,7
16:25:47.687791,0,2,1,1,-1,2,-2,-6
16:25:47.702782,-7,-2,-1,-1,5,0,1,13
16:25:47.709775,-11,5,1,-2,-2,0,5,8
16:25:47.732764,-5,-2,-1,1,0,-11,-21,-5
16:25:47.733760,1,0,3,1,-2,-9,-12,-1
16:25:47.747751,-3,-6,-1,-1,-6,-2,-2,-1
16:25:47.748750,-3,-1,-1,-3,2,-3,0,0
16:25:47.762745,-3,-1,-1,2,-1,-3,-4,-2
16:25:47.770739,-4,0,-1,-4,-4,-3,-3,-2
16:25:47.792727,-4,-3,-4,-5,-6,-2,-3,-2
16:25:47.793722,-3,-3,-2,-1,-6,-2,-1,-3
16:25:47.807717,-5,-1,-3,-3,-3,-3,-1,-1
16:25:47.808714,2,0,1,-4,-1,-2,-3,-2
16:25:47.822705,0,0,0,1,2,-3,2,-1
16:25:47.829703,3,3,3,-1,3,1,-1,-1
16:25:47.845690,-2,-2,-1,-2,-3,-4,-3,-1
16:25:47.852690,1,-1,1,0,1,-4,1,1
16:25:47.867680,2,2,1,1,3,3,9,5
16:25:47.875672,-6,-4,-2,-4,-8,-1,-8,-5
16:25:47.882671,4,0,1,2,-1,-8,4,8
16:25:47.890666,-4,1,-2,1,-6,-3,-2,-3
16:25:47.905657,2,2,-3,0,-1,2,1,-1
16:25:47.912653,-3,-3,0,-3,2,0,-2,0
16:25:47.927643,1,-1,-3,1,2,-3,2,0
16:25:47.935635,-2,-3,-5,-4,-5,-2,-10,-6
16:25:47.950626,-1,-2,1,1,0,1,4,1
16:25:47.950626,-1,-4,-1,-1,-2,-3,-3,-1
16:25:47.980607,1,-1,0,0,-1,-1,-1,-3
16:25:47.980607,-1,0,0,-1,-5,0,0,1
16:25:47.987606,0,-1,-1,-2,0,-6,-13,-3
16:25:47.995602,-2,0,-2,1,-3,-1,1,-1
16:25:48.017588,2,2,-3,1,5,0,4,7
16:25:48.018589,-1,-3,-4,-3,0,-2,3,0
16:25:48.025580,-2,1,-3,-2,1,-1,1,-1
16:25:48.032578,2,-2,-1,-3,-2,-1,-1,0
16:25:48.047569,0,-1,1,0,2,-3,11,3
16:25:48.055565,1,-3,-1,1,0,3,2,1
16:25:48.070552,-2,2,-4,-2,-1,7,3,2
16:25:48.070552,1,4,-2,0,2,-1,4,3
16:25:48.085546,-1,-2,-1,3,0,0,-8,-4
16:25:48.100534,2,5,6,4,10,17,8,8
16:25:48.107529,-3,-2,-1,0,-5,-3,3,5
16:25:48.115524,0,-1,0,-1,-3,-5,2,0
16:25:48.130516,-2,-1,-5,1,-2,2,-3,-6
16:25:48.130516,-2,-2,-2,-5,-2,-1,-3,-1
16:25:48.145508,0,1,0,-1,0,1,0,-2
16:25:48.152503,0,1,4,6,3,-5,3,4
16:25:48.167496,0,0,-1,0,-3,-3,-1,0
16:25:48.182485,-1,-2,0,-1,-3,0,1,-3
16:25:48.190479,1,-3,-3,0,1,-4,-9,-3
16:25:48.190479,0,-3,-1,-1,-2,-1,4,-1
16:25:48.205472,0,2,-1,2,6,3,4,2
16:25:48.212466,0,-2,0,0,-2,4,-1,0
16:25:48.227457,-1,1,2,2,7,5,-2,1
16:25:48.235454,1,-2,-2,-2,1,0,2,2
16:25:48.250441,0,1,-2,0,2,0,-1,3
16:25:48.250441,0,-2,2,0,-2,-5,-5,-5
16:25:48.265433,-1,-3,0,-2,-1,-4,-14,-10
16:25:48.272429,-2,1,-3,-3,-2,2,-2,3
16:25:48.287419,-1,1,-3,2,-4,-5,-2,-6
16:25:48.295414,-2,-2,0,-3,0,2,-9,-3
16:25:48.310404,-5,-2,-2,-1,-2,-6,16,0
16:25:48.310404,4,4,2,4,7,4,1,9
16:25:48.325399,-1,1,-3,-3,0,-1,-2,-4
16:25:48.332392,0,0,-1,0,-1,1,0,1
16:25:48.347383,-1,1,-3,-2,-1,1,-3,-3
16:25:48.355380,-2,-2,3,-1,-1,1,1,2
16:25:48.370371,1,0,-2,0,-2,2,2,-2
16:25:48.371369,-4,-1,-1,-3,-4,1,0,0
16:25:48.385362,0,1,0,1,1,0,11,0
16:25:48.392355,-1,2,2,2,3,1,1,1
16:25:48.407346,-1,3,-2,-1,-1,-1,1,0
16:25:48.415340,-7,-3,-5,-5,-4,0,0,-1
16:25:48.430334,-1,1,1,-2,-1,-1,-8,0
16:25:48.430334,-5,-5,-4,-2,-2,-3,0,-1
16:25:48.445325,1,0,2,-4,-3,-9,-14,0
16:25:48.452318,-1,0,0,2,2,4,2,5
16:25:48.468307,-1,0,-2,-3,0,-2,0,1
16:25:48.475306,-3,-2,-1,-2,-5,-5,-6,-1
16:25:48.490297,5,3,0,5,0,-1,14,17
16:25:48.498290,-2,-2,0,-3,-2,-6,0,1
16:25:48.505288,-2,-3,0,-1,0,2,-4,-4
16:25:48.512284,-2,-4,-4,-4,-2,-8,-15,9
16:25:48.527271,-7,-4,-2,-5,-4,-6,-4,-12
16:25:48.535269,-1,-1,-2,1,-3,2,-8,-6
16:25:48.550260,2,-1,0,-1,-2,-3,-2,1
16:25:48.551259,4,2,1,4,4,1,0,8
16:25:48.565251,-5,-5,-4,-5,-7,-8,-8,-8
16:25:48.573246,-3,-3,-1,-4,-2,2,-11,-1
16:25:48.595233,-7,-4,-3,-3,-6,-6,1,-3
16:25:48.596228,-1,1,-1,1,2,6,4,6
16:25:48.610223,-1,-1,0,-1,-2,-3,-6,-4
16:25:48.611221,-1,1,-1,-1,2,1,10,3
16:25:48.632207,1,-1,-3,1,1,6,3,0
16:25:48.633207,1,-1,-2,0,1,0,0,1
16:25:48.648197,-1,0,0,-2,-1,-5,-7,-6
16:25:48.655195,-1,-1,-4,-1,-2,3,2,2
16:25:48.670186,-1,1,0,0,-1,-3,-2,-4
16:25:48.671186,-2,-2,0,0,-4,-7,-19,-2
16:25:48.685177,0,-3,-4,-2,-3,-12,-14,10
16:25:48.692172,3,-1,0,-1,-6,-8,28,19
16:25:48.708163,-6,-2,-1,-2,-2,1,-3,-5
16:25:48.715158,-4,-2,-1,0,-1,1,-1,-3
16:25:48.730149,4,0,0,2,1,6,6,5
16:25:48.731149,-2,-4,-1,-4,-5,0,-3,-2
16:25:48.745140,-2,-1,0,-4,-2,0,-4,-5
16:25:48.753134,-1,-1,-3,-6,-5,1,1,1
16:25:48.768126,-1,0,0,0,1,2,1,-1
16:25:48.775122,-6,1,-3,-4,-4,1,-2,-6
16:25:48.790112,-2,-1,1,0,0,0,-2,1
16:25:48.791112,-1,-4,-1,-5,-2,-3,3,-2
16:25:48.813096,-2,-1,1,1,2,3,-1,-3
16:25:48.813096,-1,-3,-3,-4,0,4,2,0
16:25:48.835085,-1,-2,-3,0,4,-1,5,3
16:25:48.836082,-5,-2,-1,-2,0,1,0,-1
16:25:48.850075,-1,0,-1,0,-1,0,-3,0
16:25:48.851075,2,-2,-1,-5,-3,-1,1,0
16:25:48.865063,0,0,-1,-3,-3,-1,-1,-1
16:25:48.873062,-1,-1,-2,1,-1,1,1,0
16:25:48.888052,-4,-3,-1,-5,-6,-11,-5,-4
16:25:48.910038,-7,-3,-3,-3,-4,-5,2,0
16:25:48.911039,-1,-3,-2,2,-1,0,-3,-4
16:25:48.918034,1,-3,1,-3,-3,1,0,-2
16:25:48.933021,2,1,-2,1,2,2,-2,2
16:25:48.933021,-4,-3,0,-3,-1,-6,-11,1
16:25:48.948015,3,2,-1,0,-2,-5,-4,0
16:25:48.955010,-3,0,-3,0,-2,3,1,1
16:25:48.969998,7,4,7,4,8,12,-2,2
16:25:48.977997,-2,1,-4,-1,-5,0,0,0
16:25:48.992984,-1,-2,-2,-1,-6,-5,2,2
16:25:48.992984,2,0,2,1,3,3,6,7
16:25:49.007975,1,0,1,0,-3,0,-2,-2
16:25:49.014971,-2,-1,2,-2,-4,-5,-6,-1
16:25:49.029962,-3,0,-2,0,1,-3,-1,0
16:25:49.037960,-4,-3,-2,-3,-1,-2,-1,0
16:25:49.052951,2,0,0,-1,-1,-1,-7,-4
16:25:49.053948,-2,-1,-2,-1,-4,-7,-13,-6
16:25:49.075933,6,1,-1,2,6,15,18,20
16:25:49.075933,-3,-3,0,-1,-1,-4,-1,-4
16:25:49.089926,-1,0,-1,0,-1,-2,-4,-4
16:25:49.097922,1,-2,-3,-4,-1,-5,5,-2
16:25:49.119909,1,1,2,0,0,1,-7,1
16:25:49.120906,-2,-2,-1,0,1,6,-4,-1
16:25:49.127905,-2,0,0,1,1,3,3,-3
16:25:49.134898,-1,2,-1,0,0,4,2,1
16:25:49.163878,-3,-2,-1,1,4,-3,0,-3
16:25:49.164879,-4,-2,-1,-3,-4,-2,0,-4
16:25:49.172873,5,0,-2,-4,-3,0,9,13
16:25:49.172873,-1,1,1,-1,-3,1,1,1
16:25:49.187864,-2,-2,-1,-1,-1,-3,2,-1
16:25:49.194860,-3,2,0,0,-2,-1,-1,2
16:25:49.209850,1,-4,-2,-2,-4,-5,0,-1
16:25:49.217846,-3,0,-2,-1,0,0,12,4
16:25:49.231838,7,2,1,1,-1,1,-10,1
16:25:49.232836,0,-1,1,0,2,3,5,-1
16:25:49.247828,1,2,0,0,0,-1,4,-2
16:25:49.254823,-4,-2,-2,-1,-1,-5,6,-2
16:25:49.269823,1,2,-2,-1,-5,1,-3,-1
16:25:49.277809,-1,-3,-4,-4,0,0,-2,-3
16:25:49.291803,1,-3,-1,0,-2,-3,-1,2
16:25:49.292800,2,2,1,1,3,8,10,17
16:25:49.314787,3,4,0,3,3,-5,1,5
16:25:49.315787,-1,-2,0,1,1,0,-3,-3
16:25:49.329815,-3,0,-2,-3,-1,-6,8,-2
16:25:49.345768,1,1,1,-2,-2,0,0,8
16:25:49.352766,1,0,-1,-4,-1,0,0,1
16:25:49.353766,0,1,0,-2,-1,0,13,2
16:25:49.367756,2,-1,0,0,-2,-11,-10,2
16:25:49.374753,-1,-2,1,0,-1,3,1,2
16:25:49.390742,-2,-2,-1,0,-3,-3,2,-4
16:25:49.397738,0,-1,2,1,0,-3,1,8
16:25:49.412729,2,-2,-4,-1,-3,0,-1,-7
16:25:49.413725,-4,-3,0,-3,3,4,0,-4
16:25:49.427720,0,-3,0,-2,0,4,8,1
16:25:49.435712,-1,0,0,0,-3,-1,1,-3
16:25:49.450703,-4,-1,-4,-4,-3,-6,6,-5
16:25:49.457701,3,2,2,1,4,6,-2,12
16:25:49.472692,1,0,0,2,4,3,1,1
16:25:49.473693,-3,-5,-2,-2,0,-4,2,-1
16:25:49.487683,1,1,0,-1,2,-3,0,1
16:25:49.495678,0,-1,-1,-5,1,-3,2,-1
16:25:49.510665,-1,1,0,2,-1,-1,6,6
16:25:49.517665,3,-5,-4,-1,-2,0,16,20
16:25:49.532652,-2,-1,-1,-1,-1,-2,-6,-6
16:25:49.533651,-2,1,-1,-2,2,-5,2,-1
16:25:49.547646,4,4,2,1,1,2,-4,11
16:25:49.554641,-3,-4,-6,-2,-4,0,-10,-8
16:25:49.570631,3,-2,1,0,-2,3,1,3
16:25:49.577628,-6,-3,-4,1,-1,-3,-8,-10
16:25:49.592619,-3,1,0,0,-1,-3,-3,-3
16:25:49.593615,0,-1,0,-1,0,-1,1,4
16:25:49.607609,3,0,2,3,0,-2,2,2
16:25:49.615602,-2,-3,1,2,0,0,3,-2
16:25:49.630592,1,-3,0,-3,-1,-2,-14,-1
16:25:49.637588,-2,-1,-2,-5,-1,3,7,2
16:25:49.652582,-1,1,-2,-2,-2,-2,-1,-3
16:25:49.653581,-3,-3,-1,-1,-5,-1,-5,-7
16:25:49.667572,4,-1,0,-1,1,2,7,12
16:25:49.675567,-1,4,1,1,1,0,-9,0
16:25:49.690558,-1,-4,-3,1,-2,-2,2,-6
16:25:49.697554,-1,-3,0,-1,-1,-3,-4,4
16:25:49.712545,-1,1,0,0,-2,1,1,-1
16:25:49.713544,-2,1,0,0,3,6,11,2
16:25:49.735528,1,-1,-1,-3,-4,-7,-24,-7
16:25:49.735528,-4,-4,1,1,2,3,5,1
16:25:49.750521,-2,0,-2,-3,-5,-1,0,-4
16:25:49.758516,-4,0,-2,0,1,0,2,1
16:25:49.772508,-1,-2,1,1,-3,1,-2,-1
16:25:49.773507,2,3,2,3,2,4,17,18
16:25:49.787500,-3,-1,-2,1,-2,-1,-3,-2
16:25:49.795493,-2,-2,-2,3,2,-2,18,1
16:25:49.810484,-1,-2,2,-1,-1,1,-3,-4
16:25:49.817479,-1,-1,-4,-2,1,3,4,5
16:25:49.833470,0,-1,-5,0,0,5,9,1
16:25:49.840462,-1,-3,1,0,3,5,1,5
16:25:49.855454,-1,-1,-2,-2,-1,0,2,-2
16:25:49.855454,-3,-1,-2,-3,-1,-3,2,-3
16:25:49.870447,2,-1,0,0,-3,-2,-6,-5
16:25:49.877441,1,-4,-3,-1,1,-1,-2,-1
16:25:49.892431,1,1,-1,-3,-4,-1,0,-1
16:25:49.900429,-4,-2,-1,0,1,0,0,-1
16:25:49.907422,1,-2,-1,-3,-2,-3,-2,-1
16:25:49.915417,-2,1,0,-1,2,1,-8,1
16:25:49.930410,0,-3,-2,-1,-2,-3,-1,-3
16:25:49.937403,-5,-1,-2,1,3,-1,-11,-6
16:25:49.952397,1,0,-1,0,0,-2,-5,10
16:25:49.960392,1,-1,-1,-1,-2,2,7,-3
16:25:49.975379,-2,1,-3,-4,-4,-1,-9,-1
16:25:49.975379,0,-1,1,2,-1,2,13,4
16:25:49.997369,0,2,0,2,-1,1,2,1
16:25:49.998366,-3,-1,-2,-1,-4,-1,-1,0
16:25:50.012359,-1,-3,0,-1,0,1,0,-1
16:25:50.020354,-2,0,-3,-3,-3,4,5,0
16:25:50.043338,0,0,-3,1,-1,1,1,1
16:25:50.043338,1,-2,0,0,-2,5,10,14
16:25:50.057331,-1,-1,2,-1,-3,3,-3,2
16:25:50.058331,-3,-2,-1,-2,0,-2,-3,-3
16:25:50.073320,-2,-2,0,-2,-2,-5,11,-1
16:25:50.080315,-2,-3,-3,0,-1,-12,-18,6
16:25:50.095309,-2,-2,-3,-1,-1,3,1,-2
16:25:50.096308,-1,-2,-2,0,2,2,0,-1
16:25:50.110300,0,-1,-3,-3,-5,-3,0,-3
16:25:50.118292,-2,-2,-2,-1,-1,0,3,0
16:25:50.133286,-2,-2,-2,-1,0,1,-3,-2
16:25:50.140281,-4,-1,-3,-2,-3,-4,-1,0
16:25:50.155272,1,-5,-3,-1,2,3,-5,-9
16:25:50.156271,-2,0,-1,-4,-1,-4,-8,-1
16:25:50.177255,1,2,-2,-1,-1,-1,-2,-4
16:25:50.178255,-3,-2,-1,-2,2,-2,-2,-2
16:25:50.193247,-1,0,-3,-1,-1,-4,-8,-2
16:25:50.200244,-3,-2,-2,0,-2,-5,-1,-3
16:25:50.215232,-3,-3,-2,2,0,-6,-2,-4
16:25:50.216233,-1,0,1,-1,-2,1,2,-1
16:25:50.230226,1,3,-2,1,0,1,-5,1
16:25:50.238221,-4,-3,-2,-1,-2,-1,-2,3
16:25:50.253209,-3,-1,-3,-2,-1,-2,6,-1
16:25:50.268203,-4,-2,-2,-2,-1,-1,-4,-8
16:25:50.275198,-1,2,0,2,3,7,1,0
16:25:50.283190,2,1,0,0,0,-4,-3,-2
16:25:50.290189,1,1,-1,-1,2,0,3,3
16:25:50.305177,-1,-1,-6,-1,0,-1,-2,1
16:25:50.312173,-1,-1,-2,2,-1,-4,-2,0
16:25:50.320168,-1,0,-3,-2,2,1,-1,3
16:25:50.335159,-4,0,-3,-2,0,-1,-2,-5
16:25:50.342156,-1,-2,-1,-1,-2,-3,-4,-1
16:25:50.350150,-2,2,-1,-2,1,-1,-5,-2
16:25:50.357147,-5,0,-3,-2,0,6,19,-2
16:25:50.372145,5,2,2,-1,-2,2,-1,2
16:25:50.380131,0,1,0,2,1,-2,3,-2
16:25:50.395124,-3,-2,-2,-1,-1,2,0,-2
16:25:50.403118,0,-3,-1,-2,-2,-1,3,-3
16:25:50.410115,0,-4,-3,-1,0,1,8,-1
16:25:50.418108,-3,-2,0,-2,2,2,7,5
16:25:50.433098,2,0,-2,1,1,-4,-2,-4
16:25:50.440097,-3,-2,0,-1,-3,-1,4,0
16:25:50.455087,-3,-2,-3,1,1,-2,-3,-1
16:25:50.463080,-3,-2,-2,3,1,-2,1,2
16:25:50.470078,-2,-1,-2,-3,1,5,-4,-5
16:25:50.478071,-3,-3,-3,0,-2,-2,-4,0
16:25:50.493062,-1,-2,0,0,2,3,3,1
16:25:50.500057,-3,-4,-1,-4,3,-1,-2,1
16:25:50.515048,0,0,-1,-3,-2,-1,2,1
16:25:50.516048,-2,2,3,1,-1,0,1,-2
16:25:50.538036,-2,-1,-1,-3,-3,-5,0,-4
16:25:50.538036,-3,-2,1,-1,0,1,0,-2
16:25:50.553027,-2,2,-1,1,1,-4,-6,-1
16:25:50.583007,-1,2,0,2,2,-2,1,2
16:25:50.583007,0,0,-2,-2,0,-2,10,3
16:25:50.584008,-3,0,-2,1,-2,1,-1,-1
16:25:50.590004,0,-2,-1,-2,2,0,2,-1
16:25:50.597999,-1,-2,4,-2,1,-3,3,1
16:25:50.612990,1,-1,-1,0,1,-3,-2,-2
16:25:50.619985,-1,-1,-3,-1,-1,0,1,-1
16:25:50.634977,1,-1,-2,-2,-3,-5,-6,-3
16:25:50.635973,-4,1,-1,0,0,0,-2,-2
16:25:50.649964,-3,-2,-4,-2,-3,-8,-5,-3
16:25:50.657963,0,1,-1,3,2,6,-6,2
16:25:50.672951,-3,-1,-1,3,0,-2,2,-1
16:25:50.679950,-1,-2,-3,5,5,-3,-7,-2
16:25:50.694939,0,2,2,-8,-8,-1,-3,-4
16:25:50.695939,1,-1,2,2,0,1,11,12
16:25:50.709928,-4,-1,-3,-2,1,1,0,-1
16:25:50.717926,-4,-2,0,0,-1,-2,-6,-3
16:25:50.732916,-2,-2,0,-2,-2,-2,-1,-1
16:25:50.739909,2,1,0,-2,-1,-1,-2,-2
16:25:50.754903,-2,-2,-3,-2,0,-4,13,-1
16:25:50.755902,-1,1,-1,-2,-1,-1,-6,0
16:25:50.769891,4,2,-2,-3,-2,1,0,0
16:25:50.777889,2,-6,0,2,6,4,6,3
16:25:50.792880,1,0,0,-2,-2,0,-2,-1
16:25:50.799875,0,-4,-3,0,-1,-2,-12,-3
16:25:50.815863,-3,-4,-4,-1,1,-7,-10,4
16:25:50.822861,-4,-1,-1,1,-3,0,2,1
16:25:50.829854,1,-1,0,-2,-3,0,-4,-4
16:25:50.844847,0,0,2,0,0,3,2,0
16:25:50.852843,-3,-4,1,-3,0,0,1,-3
16:25:50.859835,-2,-2,-4,-1,-1,2,-1,-1
16:25:50.882824,-4,0,0,2,8,1,2,1
16:25:50.883823,1,-3,-2,1,-1,-1,0,-3
16:25:50.897815,2,-3,-1,-2,-4,-4,-2,-1
16:25:50.898814,-1,-1,0,-1,2,-2,-1,1
16:25:50.912803,-2,-1,2,-1,-1,-3,-2,-2
16:25:50.919801,0,1,-2,-1,2,1,1,0
16:25:50.935791,-2,-2,-2,-1,-4,-3,-1,-2
16:25:50.942787,-3,-1,1,-1,-3,-2,-4,-3
16:25:50.957778,0,3,-3,-2,-2,-3,-8,-3
16:25:50.957778,-5,-2,0,-2,0,0,3,0
16:25:50.972769,1,-1,1,1,1,2,2,-2
16:25:50.979768,-1,-2,3,-2,0,0,3,0
16:25:50.995753,1,-5,-1,-1,-1,1,-3,-1
16:25:51.002750,-6,-1,-2,-1,-3,-4,-9,-7
16:25:51.017741,1,-3,-3,1,0,-3,-2,8
16:25:51.018738,1,-1,0,1,0,1,2,-1
16:25:51.032729,-3,-1,-4,-1,0,0,-8,-5
16:25:51.040726,-3,-1,0,1,1,-3,6,0
16:25:51.055717,3,-2,-3,-3,-2,4,6,7
16:25:51.062713,-3,0,3,3,3,-2,0,0
16:25:51.077704,-2,-1,-3,-4,-4,1,-3,-5
16:25:51.078703,1,0,-2,-4,-2,-1,-7,-4
16:25:51.092695,2,-3,-1,-1,0,5,2,3
16:25:51.100687,-4,-1,-1,0,1,-5,-7,-1
16:25:51.115679,0,-2,0,-3,1,1,6,-3
16:25:51.122677,0,-3,-3,-1,0,-2,-4,0
16:25:51.137667,0,-3,0,-2,0,2,-5,0
16:25:51.138665,-2,0,2,0,0,0,-3,1
16:25:51.152658,2,-1,-2,3,-3,-9,-17,-2
16:25:51.160653,-1,-2,0,0,-4,-2,-1,-1
16:25:51.175643,1,1,-3,-1,-2,0,-2,0
16:25:51.182636,2,0,-1,2,1,4,7,3
16:25:51.197630,0,-1,2,-1,1,-1,-3,2
16:25:51.198627,-3,-1,-2,0,-2,-1,-1,-3
16:25:51.212621,0,-3,1,0,0,0,1,6
16:25:51.220616,-1,-1,-4,-2,0,4,4,1
16:25:51.235607,1,0,0,-1,-2,3,9,10
16:25:51.242603,-3,-2,-2,-2,-2,-1,0,-4
16:25:51.257593,0,-2,-5,-4,-1,-6,-2,-1
16:25:51.258590,-1,-1,0,0,1,-3,3,3
16:25:51.272584,2,-2,-3,-3,-3,-4,-2,1
16:25:51.280579,-1,2,-3,-3,-2,-1,-3,-2
16:25:51.295567,2,-2,-1,2,-1,3,7,8
16:25:51.310559,-4,-3,-1,0,-1,-3,-1,2
16:25:51.317556,-2,-3,-1,-1,1,6,16,4
16:25:51.318556,2,-1,3,2,-1,-1,5,-1
16:25:51.332547,-1,-3,-1,-5,0,-1,-3,-8
16:25:51.340541,0,1,-1,-4,-1,5,10,8
16:25:51.355533,0,0,1,1,2,-4,-5,-6
16:25:51.362529,0,0,-2,-3,1,0,1,-1
16:25:51.377520,0,-3,1,0,-4,-2,-3,0
16:25:51.378516,3,1,1,2,4,1,2,4
16:25:51.392509,-2,0,-1,0,0,-1,1,-1
16:25:51.407498,-1,-3,-1,-2,-1,1,-3,1
16:25:51.415494,-3,-1,-4,-5,-6,-1,-1,-3
16:25:51.422490,-1,0,-3,0,-3,-6,-12,-1
16:25:51.437483,-2,1,-1,-1,-2,-1,-1,-2
16:25:51.438479,-1,-3,-1,0,0,0,-5,-2
16:25:51.452471,1,-1,0,-1,-1,2,10,9
16:25:51.460466,-1,-2,-2,0,-3,-3,-4,-3
16:25:51.475459,0,-4,-1,-2,-3,-4,-7,-10
16:25:51.482452,-2,-1,0,-2,1,4,-7,-1
16:25:51.497444,1,1,0,0,-1,-2,4,-1
16:25:51.498442,2,3,-1,-2,-1,-4,-11,0
16:25:51.512434,1,-1,-3,-2,-1,-1,2,-1
16:25:51.520432,-1,-1,-3,-1,-3,-2,0,0
16:25:51.535423,0,-3,-1,-2,1,1,-8,-2
16:25:51.542415,-2,-1,-3,-1,0,0,4,-1
16:25:51.557408,-2,-1,0,-1,-1,0,0,-2
16:25:51.558408,-1,-1,-1,-2,-1,0,0,2
16:25:51.572400,-3,1,-3,-4,1,-6,2,1
16:25:51.580394,0,-2,-1,-2,2,-1,-3,2
16:25:51.595386,-2,1,-2,1,-1,-6,-4,-3
16:25:51.602379,-4,-2,-3,1,-1,-3,-5,-5
16:25:51.617371,1,-4,-1,-2,1,-4,-2,-2
16:25:51.618371,-2,3,-1,-3,0,-4,-2,-1
16:25:51.633362,-3,0,1,-1,-2,-7,-8,-2
16:25:51.640358,-1,0,-3,-1,3,-2,6,0
16:25:51.655349,-2,0,-1,1,-1,-4,-1,0
16:25:51.662342,-3,-4,-2,-1,-3,0,0,0
16:25:51.677332,-3,0,-4,-4,0,-1,2,-1
16:25:51.678334,1,1,-1,0,1,-1,10,2
16:25:51.693325,0,2,-1,-1,0,-2,-1,-1
16:25:51.700321,0,1,-3,-2,-1,1,2,3
16:25:51.715309,-3,2,-3,-3,0,0,-1,-3
16:25:51.722304,-1,4,1,4,4,1,-13,0
16:25:51.738301,-1,0,-2,3,-1,-1,0,-4
16:25:51.745293,-1,-1,-1,0,-4,-3,2,1
16:25:51.752285,1,2,-3,1,2,1,8,15
16:25:51.760284,0,0,-2,1,0,-1,-3,-3
16:25:51.775275,2,3,-2,-2,2,0,-10,1
16:25:51.782268,0,0,1,-5,0,1,-4,0
16:25:51.797260,-1,-2,1,1,5,8,6,1
16:25:51.805256,-2,-3,0,-3,-2,-2,0,-1
16:25:51.820247,0,2,-3,4,4,2,-6,-1
16:25:51.821246,-1,1,-2,-5,-1,-1,-1,2
16:25:51.835238,0,-4,-2,0,-4,-3,1,0
16:25:51.843230,-6,-1,0,-2,1,-2,2,-4
16:25:51.858221,-1,0,-2,-3,-4,-4,-1,0
16:25:51.865217,0,-2,0,-1,-1,-1,-1,0
16:25:51.880210,2,-3,0,1,0,3,0,2
16:25:51.881207,0,-1,-1,-2,0,4,2,-3
16:25:51.903193,0,1,-3,-1,1,4,-5,-1
16:25:51.903193,-2,-2,0,-1,0,0,-2,-2
16:25:51.918187,-3,-5,-3,-3,-5,-2,-6,4
16:25:51.925182,-6,-2,0,1,0,0,-1,-1
16:25:51.940173,-1,-2,-3,-2,-4,0,3,-3
16:25:51.941171,-5,-3,0,0,2,-1,4,1
16:25:51.955164,0,0,2,1,1,0,1,0
16:25:51.962159,-2,-3,0,-3,-7,-3,-2,-2
16:25:51.978147,-3,0,-3,-1,-1,5,-2,-1
16:25:51.985146,-4,0,-2,-4,-2,-3,0,-1
16:25:52.000136,1,-1,-3,-1,1,8,7,1
16:25:52.001136,-3,-3,2,-3,-4,-3,-11,-5
16:25:52.015124,0,0,-2,-2,1,0,1,0
16:25:52.023119,-4,-3,-1,-2,0,-1,1,-2
16:25:52.038110,4,-1,-1,-2,1,-3,-1,-1
16:25:52.045109,-2,1,1,0,1,-4,0,0
16:25:52.060099,4,0,1,0,0,4,1,0
16:25:52.061099,-5,1,1,2,1,0,-10,-5
16:25:52.075090,0,-2,-5,-1,-4,0,3,5
16:25:52.083083,1,0,-1,-1,-1,-4,-4,5
16:25:52.098073,3,1,-1,0,-6,-1,3,-3
16:25:52.105072,-3,-1,-5,-2,1,-4,-4,-3
16:25:52.120062,-2,-2,-2,-3,-1,-2,10,-4
16:25:52.121059,-2,0,-1,1,1,-2,-9,-3
16:25:52.143046,1,1,2,-1,0,-7,5,-1
16:25:52.143046,0,0,-1,-1,0,4,-5,0
16:25:52.158040,-1,-1,-1,-3,-1,-4,4,-3
16:25:52.165032,0,-1,0,1,0,0,-1,-1
16:25:52.180026,-2,-2,-1,-1,-5,-2,-9,-8
16:25:52.181022,-1,-2,-3,-1,2,2,2,1
16:25:52.195014,2,-2,1,-1,-2,-2,-1,-3
16:25:52.203011,-2,-2,1,-1,1,2,-1,8
16:25:52.218002,0,1,0,-1,-2,-5,-9,1
16:25:52.224996,-5,-4,-3,-1,-3,1,-1,-5
16:25:52.239989,-4,-1,-1,-3,1,-6,-4,-5
16:25:52.240987,1,5,2,1,3,3,-6,2
16:25:52.254979,0,1,-1,-2,-1,-2,-1,-1
16:25:52.262973,-1,-3,1,-2,-2,-7,11,0
16:25:52.277965,2,0,-1,1,-1,0,-7,0
16:25:52.284960,-1,-1,0,0,0,6,2,5
16:25:52.299952,-4,-1,-3,-5,-1,-5,-8,-6
16:25:52.300950,-1,-1,-1,0,-1,5,-1,0
16:25:52.314939,2,0,-1,-1,-1,4,14,10
16:25:52.322935,-4,-1,-3,-2,-5,-2,-7,-5
16:25:52.337928,-1,0,-3,-3,-2,-2,-5,-3
16:25:52.344923,-2,-4,1,-2,-2,-5,-15,-3
16:25:52.359915,1,1,-1,-2,2,4,6,2
16:25:52.360911,0,-3,-1,0,0,-1,1,-1
16:25:52.374903,0,-2,-1,-3,-3,-3,-4,-1
16:25:52.382901,-5,-2,-1,-1,0,-1,-1,-2
16:25:52.397888,5,3,0,0,0,-1,-12,3
16:25:52.404885,-1,-1,-2,1,-3,-3,1,-2
16:25:52.427873,0,0,1,0,-2,-3,1,0
16:25:52.427873,-4,1,0,0,0,-9,-15,-1
16:25:52.434866,-1,0,-2,-1,-2,-4,-2,-1
16:25:52.442864,-4,0,-1,-3,-3,0,-9,-8
16:25:52.457852,1,-1,-2,-3,-3,-2,-4,6
16:25:52.472845,0,1,-4,-3,-3,-2,2,-5
16:25:52.479840,-3,-1,-2,-1,-1,-8,1,-3
16:25:52.480840,0,2,-1,0,0,-3,-2,10
16:25:52.494829,0,-3,0,-4,0,-2,3,-1
16:25:52.502824,-3,0,-2,0,1,-1,-2,-1
16:25:52.517818,2,-1,0,-2,-1,0,2,1
16:25:52.524810,2,-3,-1,2,3,3,2,-4
16:25:52.539801,-1,-4,0,-2,-3,1,-2,-1
16:25:52.540803,2,-3,1,1,0,2,1,3
16:25:52.555794,-2,-1,-2,2,-2,1,-11,-1
16:25:52.577781,2,0,0,0,-2,1,8,8
16:25:52.577781,-4,-2,-3,-3,-4,-3,-1,-8
16:25:52.585772,-3,1,-2,0,4,3,-5,0
16:25:52.599767,0,-1,1,0,-1,0,-1,-2
16:25:52.600763,1,-1,0,1,1,-5,-3,-4
16:25:52.615755,0,-2,-2,1,0,1,7,4
16:25:52.622753,-1,-2,-2,0,-2,-3,-5,1
16:25:52.637744,-1,1,0,-2,-2,-3,-6,-3
16:25:52.644739,-2,-1,0,0,0,-3,-1,-1
16:25:52.659728,1,-1,-3,2,2,-2,-6,1
16:25:52.660729,-5,-2,-2,-2,-1,-1,-1,-2
16:25:52.675721,0,1,3,-3,6,6,6,-3
16:25:52.682716,-2,-3,3,0,-2,-2,2,0
16:25:52.697707,1,0,0,-1,2,7,6,4
16:25:52.705699,-3,0,1,0,-1,-3,-5,-1
16:25:52.727688,0,-3,-2,-2,-4,-8,-10,-2
16:25:52.728687,-4,-2,-1,-1,-1,-1,1,-1
16:25:52.735680,-3,-1,-1,0,-1,3,5,-1
16:25:52.742680,1,1,-2,1,-2,-2,0,2
16:25:52.757670,0,0,0,0,-4,-1,-9,-3
16:25:52.765665,-4,-1,-1,0,1,5,0,2
16:25:52.787652,-3,-3,-4,0,-4,1,11,6
16:25:52.788651,-1,-4,2,2,-2,-2,0,-2
16:25:52.802640,-2,1,-1,-1,-3,2,1,3
16:25:52.803639,2,-1,2,-1,-1,5,-1,0
16:25:52.817631,-3,-1,-3,-2,0,1,7,-4
16:25:52.825627,2,1,0,3,6,-3,-3,1
16:25:52.840619,-2,1,-1,-3,-2,2,-7,-3
16:25:52.847614,0,-1,1,0,-1,7,-3,1
16:25:52.862606,-2,-3,0,-4,0,-1,3,-2
16:25:52.863602,-1,-1,-1,-1,-2,3,2,-2
16:25:52.877596,-1,-2,2,1,-3,-5,-5,-6
16:25:52.885591,-2,-1,-3,0,-1,-3,-2,-1
16:25:52.900579,0,0,0,0,0,1,-3,-2
16:25:52.907575,-3,1,-3,0,-6,0,-3,-2
16:25:52.922569,0,1,-2,-1,-2,-3,3,1
16:25:52.923570,-2,1,-4,-1,1,0,-3,-2
16:25:52.937559,-3,-3,-1,-3,-4,-5,-3,-4
16:25:52.945551,2,1,1,2,3,8,2,3
16:25:52.960545,0,2,-1,-1,-2,-3,-4,0
16:25:52.967541,1,2,3,6,5,5,-1,3
16:25:52.982532,1,0,1,-2,-3,-5,2,2
16:25:52.983531,0,0,-3,-1,-1,0,-4,-6
16:25:52.998520,3,-1,-1,1,5,5,15,17
16:25:53.005517,-1,1,1,0,-1,0,-1,-1
16:25:53.020508,1,-3,1,1,0,-3,-5,-3
16:25:53.027504,-3,1,-3,1,-5,-1,-3,2
16:25:53.042495,-1,-2,1,-1,1,2,-2,-2
16:25:53.043494,-2,0,-2,1,-1,3,-1,-3
16:25:53.057484,0,2,1,0,-2,4,5,6
16:25:53.065480,0,-1,-1,-1,-1,0,-6,-7
16:25:53.080471,-1,-3,-4,-3,-4,-1,0,-3
16:25:53.087466,0,0,0,1,-1,-1,-6,-6
16:25:53.102458,3,0,0,0,2,-3,-12,0
16:25:53.103454,-3,-4,-1,-1,2,1,1,-4
16:25:53.117448,-6,-2,-1,-3,-3,-3,-2,-3
16:25:53.125444,-3,0,-6,-1,-3,-1,-3,1
16:25:53.140432,0,-1,-1,-3,1,0,2,1
16:25:53.147429,-1,-1,-1,-1,-1,2,-1,-2
16:25:53.162421,-2,0,-2,-1,-2,-1,2,-1
16:25:53.163417,2,2,0,-1,-5,1,-9,-2
16:25:53.177409,0,-3,-1,0,-1,-3,0,-2
16:25:53.192400,-1,-3,1,0,-4,-3,6,-3
16:25:53.200397,-4,0,-2,-1,-2,-5,-3,-3
16:25:53.207393,-3,-3,-1,1,-1,-2,-4,0
16:25:53.222383,-2,-3,0,-4,1,-10,-21,-6
16:25:53.223381,-1,-1,-1,0,-4,-4,1,-2
16:25:53.237372,-1,-1,-4,-3,2,-1,-1,-1
16:25:53.245370,-4,-2,2,0,1,-1,0,3
16:25:53.260361,0,-3,-1,-1,0,1,10,7
16:25:53.267355,0,0,-4,-3,1,2,1,-3
16:25:53.282345,-1,0,-3,0,1,2,-3,-2
16:25:53.283343,0,-4,-3,0,3,-3,1,0
16:25:53.298335,0,1,2,2,1,5,7,2
16:25:53.312326,-3,-3,-3,-4,-6,-4,-5,-3
16:25:53.320324,3,1,2,-1,-1,1,9,7
16:25:53.327316,-1,0,-2,-2,-2,-1,-9,-7
16:25:53.343310,0,0,0,0,0,-3,26,7
16:25:53.344306,3,0,2,0,-5,-2,-7,-2
16:25:53.358298,0,3,2,2,0,-6,-1,0
16:25:53.365293,-3,-1,2,-1,-7,-2,2,-1
16:25:53.380291,-3,-3,-1,-2,2,0,-2,-3
16:25:53.387282,-5,-2,-3,-3,-1,-2,-10,-7
16:25:53.403271,0,1,-2,0,-4,5,-1,2
16:25:53.403271,-4,-4,-1,1,-3,-2,-4,-4
16:25:53.418261,0,-1,-3,0,0,2,10,14
16:25:53.425259,-4,-3,1,-1,0,6,-7,-1
16:25:53.440250,4,-3,0,0,0,1,4,-1
16:25:53.448243,-3,-2,-2,-1,2,2,4,-3
16:25:53.462234,0,-2,0,0,0,0,-3,-7
16:25:53.463235,-1,0,-3,-1,-3,1,3,-3
16:25:53.478226,-1,-2,-4,-1,-1,-4,-2,-3
16:25:53.485222,-6,-3,-1,0,6,6,-1,3
16:25:53.515200,-3,-3,0,1,3,3,-3,1
16:25:53.516202,-3,-2,-3,1,-1,-1,2,-5
16:25:53.530194,0,0,-1,-2,0,1,-2,0
16:25:53.531194,-3,-4,-1,-4,-1,-3,-4,-4
16:25:53.538189,-1,-1,0,-2,-2,3,-1,0
16:25:53.545185,1,0,-3,-1,-4,-3,-5,-2
16:25:53.560176,-2,1,0,-2,-3,-1,0,-2
16:25:53.568168,-4,-4,1,-5,-3,-2,-2,-1
16:25:53.583159,0,-2,1,-1,1,-2,-3,-1
16:25:53.583159,-4,-1,-2,-3,1,-1,-2,-3
16:25:53.598150,-1,-1,0,-1,-1,-2,2,1
16:25:53.605148,0,-2,-3,-1,-1,8,2,3
