timestamp,emg1,emg2,emg3,emg4,emg5,emg6,emg7,emg8
16:43:31.143706,-2,-1,-1,-1,-1,0,-1,1
16:43:31.143706,-1,1,0,-1,4,-1,2,0
16:43:31.153698,12,2,-2,-2,3,-2,-2,0
16:43:31.168686,2,-2,2,0,-3,-4,0,-2
16:43:31.175683,-1,-2,-3,1,7,3,-3,-4
16:43:31.176681,0,1,-3,-14,-36,-2,1,0
16:43:31.197670,-4,-2,-2,7,11,0,0,2
16:43:31.198667,-1,0,-1,-3,-9,-3,0,-2
16:43:31.220654,1,2,1,24,25,-3,0,1
16:43:31.221654,-4,-3,-1,-13,-16,-4,0,-1
16:43:31.235645,-2,-1,0,0,3,-2,1,1
16:43:31.236644,-3,-4,-2,-2,1,-4,-4,-3
16:43:31.257633,1,-1,-2,0,-2,-4,-1,0
16:43:31.258629,-2,-1,0,0,-6,0,0,-2
16:43:31.273623,1,-1,1,2,5,3,-2,-1
16:43:31.280615,-3,-1,-2,-17,-46,-2,-2,-1
16:43:31.295614,-6,-2,2,7,11,-3,-3,0
16:43:31.296606,0,-3,0,-3,0,-3,0,0
16:43:31.325589,0,-1,2,0,-3,-3,-1,-1
16:43:31.326588,2,0,1,0,-6,-3,-1,-1
16:43:31.340579,-4,0,-1,1,2,1,0,-3
16:43:31.341578,-1,-1,1,-1,-2,-3,-2,-1
16:43:31.355573,-4,-2,3,1,2,1,0,-3
16:43:31.356574,-6,-1,1,10,3,0,-1,-1
16:43:31.377559,2,0,-3,20,17,1,1,0
16:43:31.378555,13,5,0,-15,-17,-2,-2,0
16:43:31.400542,2,-1,1,3,11,0,2,1
16:43:31.401540,0,2,0,2,-1,2,4,0
16:43:31.422532,-1,-3,-5,-5,-4,-1,-4,1
16:43:31.423527,-1,-1,0,2,1,-1,0,-1
16:43:31.437527,-1,-2,0,-2,-3,1,-2,-1
16:43:31.438519,-3,-1,0,-2,-3,-5,1,-2
16:43:31.460507,-3,-1,-1,4,8,1,-2,-1
16:43:31.468500,-1,-1,-2,-3,-4,0,1,-2
16:43:31.475496,1,-2,-1,-1,-7,-1,1,-2
16:43:31.475496,5,1,-2,6,-4,-5,-1,-1
16:43:31.498492,0,0,-1,1,8,-7,-3,0
16:43:31.498492,-2,0,2,1,5,-1,0,0
16:43:31.528463,0,-1,-2,-2,-8,-2,-4,2
16:43:31.528463,-3,1,0,5,2,-3,-2,-4
16:43:31.535466,-3,-4,-1,-2,7,-3,-2,-2
16:43:31.536458,-2,-1,0,-8,-22,-1,1,-2
16:43:31.558443,-2,-3,0,2,3,-5,-1,2
16:43:31.558443,0,-3,-2,-2,1,-1,-3,-3
16:43:31.580430,3,-3,-4,-1,0,0,-1,-1
16:43:31.581429,-1,-1,-2,0,7,-3,-4,0
16:43:31.595421,-2,-2,-3,-7,-42,2,1,-4
16:43:31.596426,7,2,-3,-1,5,-3,1,4
16:43:31.618406,2,-2,2,7,15,2,-3,-2
16:43:31.618406,-4,-1,-3,-11,-17,-2,-1,-3
16:43:31.640393,4,-5,-1,3,8,0,2,0
16:43:31.641393,-2,-1,-1,-2,-5,-5,-1,-2
16:43:31.655389,1,-3,-3,-2,1,-1,1,0
16:43:31.656384,1,-2,-5,2,0,0,-2,-1
16:43:31.678370,-8,-4,-2,-6,-10,-6,-1,-2
16:43:31.680369,-3,-1,-3,-26,8,-1,3,0
16:43:31.700391,-1,-2,-3,-2,-2,1,-3,0
16:43:31.701355,0,3,-3,-24,-32,0,-2,-3
16:43:31.715373,-2,0,2,10,8,1,0,0
16:43:31.716346,-5,-1,-3,-2,0,2,-1,-1
16:43:31.738333,-2,0,-5,0,-3,1,-3,-2
16:43:31.738333,2,-5,0,4,12,0,0,-2
16:43:31.760319,0,0,-1,-2,-1,0,-1,-1
16:43:31.761319,0,-1,-1,-1,2,-1,-1,0
16:43:31.775392,-1,1,0,2,1,-2,-1,1
16:43:31.776317,1,1,-2,-2,6,-3,-1,0
16:43:31.798296,-4,-5,1,6,5,0,-2,-2
16:43:31.798296,7,0,-1,-17,-44,-5,0,3
16:43:31.820284,-2,1,-1,13,12,2,-3,-2
16:43:31.821281,1,1,1,-2,-2,-3,-2,-2
16:43:31.835290,2,0,-2,-8,-6,-2,1,-1
16:43:31.836272,-3,3,0,-4,0,2,0,-2
16:43:31.858259,-1,-2,-3,-18,-31,0,-1,2
16:43:31.858259,2,-2,-2,5,12,2,1,2
16:43:31.880246,-3,-2,-1,1,-1,-2,-1,-1
16:43:31.881244,1,2,-1,-8,-3,3,-1,-3
16:43:31.895237,1,0,-1,5,16,-2,-2,-2
16:43:31.897234,0,0,1,-2,-4,-2,0,0
16:43:31.918221,1,1,2,0,1,1,-1,3
16:43:31.919221,0,1,-2,4,4,4,-3,0
16:43:31.940221,3,3,0,-1,-1,-2,-4,1
16:43:31.941206,-1,-1,0,-5,-14,-4,-1,0
16:43:31.956196,-3,-1,0,-1,0,4,-1,-2
16:43:31.956196,4,0,-1,25,5,0,-3,-1
16:43:31.978185,-1,0,3,0,11,2,1,0
16:43:31.981183,-5,1,-1,-3,5,0,1,-1
16:43:32.001173,-3,1,-1,2,10,0,-1,2
16:43:32.002169,2,0,-1,3,0,-3,-2,0
16:43:32.016161,-1,1,-1,-3,-7,1,0,0
16:43:32.016161,-2,-1,-2,12,3,2,0,1
16:43:32.038149,1,-1,-1,-1,4,1,1,0
16:43:32.039146,-1,0,-2,-1,2,-3,-5,-1
16:43:32.061135,-2,0,-1,-3,-3,0,-2,-1
16:43:32.062134,-3,-3,1,-14,-33,0,-1,-1
16:43:32.076123,-5,-4,0,6,7,-2,-1,-2
16:43:32.077126,1,1,2,17,-22,3,1,4
16:43:32.099109,-1,-1,-4,0,6,-4,-1,-3
16:43:32.099109,-1,0,-3,-3,-9,-1,-2,1
16:43:32.121098,-4,0,0,10,4,-5,-4,-3
16:43:32.122097,1,1,2,-1,1,0,-1,1
16:43:32.136089,-2,-2,1,-1,-5,-1,1,-5
16:43:32.137088,-1,0,0,-3,-1,1,-1,2
16:43:32.159072,-3,0,-2,-4,-8,1,-2,0
16:43:32.159072,-3,-1,4,1,6,1,0,0
16:43:32.182058,2,0,0,-24,-56,0,0,-3
16:43:32.182058,0,-2,-1,12,24,-1,-1,-1
16:43:32.197049,0,-3,-4,-30,-6,0,-3,1
16:43:32.204047,-1,0,-3,-10,0,0,-3,-3
16:43:32.219036,-1,-2,-1,-2,-3,0,2,-1
16:43:32.219036,-5,0,2,-2,-5,-3,1,2
16:43:32.241024,-3,3,-2,4,-2,1,-1,-6
16:43:32.242020,3,-1,-2,-2,-3,-2,-3,-1
16:43:32.256014,-3,0,-2,9,12,-1,0,0
16:43:32.257014,0,0,-1,1,13,0,1,2
16:43:32.278000,1,0,-1,1,9,-1,-2,-2
16:43:32.278998,2,0,-3,-1,4,2,1,1
16:43:32.300987,-2,-1,-1,-4,-3,-3,0,-2
16:43:32.301986,0,-3,-1,-4,-13,-7,-2,-2
16:43:32.315978,1,1,-2,1,0,-1,-4,1
16:43:32.316976,-3,-2,0,-1,-9,-7,-2,0
16:43:32.338960,1,-1,-1,7,5,4,1,-1
16:43:32.338960,-4,-3,2,7,1,-3,-2,-2
16:43:32.360949,-5,-6,-4,-9,0,1,1,-2
16:43:32.361949,2,3,-2,0,-8,-2,2,1
16:43:32.375940,1,2,-1,-4,-18,-2,-1,1
16:43:32.376937,0,-3,0,0,-2,-2,-1,-1
16:43:32.398923,-1,-2,-3,0,9,2,3,-3
16:43:32.398923,0,-2,-4,-3,-3,-4,-1,0
16:43:32.420912,-1,-4,1,3,-3,0,-1,0
16:43:32.421909,-5,-1,1,-4,-1,-3,-1,-1
16:43:32.435900,-2,-1,-1,-1,-2,-1,1,-2
16:43:32.436902,1,-2,0,12,7,0,1,0
16:43:32.465884,-2,1,-3,-2,-3,-2,-2,0
16:43:32.466882,1,-2,0,1,-4,-1,1,1
16:43:32.480873,-1,1,1,1,1,-2,-2,-1
16:43:32.480873,-4,-2,0,16,32,-1,-2,1
16:43:32.495863,-4,1,-3,-15,-35,-1,-2,-5
16:43:32.502860,2,-2,-1,3,0,-4,-2,-1
16:43:32.517851,-1,1,1,17,7,0,-1,-2
16:43:32.518849,0,-3,-2,-6,-3,-2,-1,0
16:43:32.540836,-4,-1,-4,-1,-3,-2,-2,1
16:43:32.540836,-1,-2,-2,-1,-5,-4,-1,-2
16:43:32.563820,-5,-2,-1,3,-7,2,0,-2
16:43:32.570817,-1,-4,1,-3,2,0,0,0
16:43:32.577811,-3,-1,-2,-4,-1,2,-2,-1
16:43:32.578810,-1,-1,-1,6,-5,0,0,1
16:43:32.600797,-1,-1,1,-13,-34,-2,1,-4
16:43:32.600797,2,-1,2,-2,-9,-8,-2,0
16:43:32.622783,-4,-3,-2,2,9,3,-3,-3
16:43:32.623786,2,-2,-1,-1,-1,-2,-1,0
16:43:32.637774,-1,1,-4,-5,-5,-3,-2,-2
16:43:32.638774,-3,-3,-2,5,-1,-3,-2,1
16:43:32.660761,-2,-4,-1,-2,-5,-1,-1,0
16:43:32.661759,0,-2,1,-1,-3,-1,-1,-1
16:43:32.682746,-2,1,-1,-11,-8,-1,-1,-1
16:43:32.683746,-3,0,2,-15,-35,-4,-2,-2
16:43:32.697738,-1,-1,-3,-11,1,2,-1,-2
16:43:32.698736,-3,1,-1,-1,8,-2,-2,-1
16:43:32.720723,1,2,-3,-13,-28,4,2,2
16:43:32.720723,-1,-2,-2,1,6,-3,-2,-2
16:43:32.742712,-2,0,-3,-2,-3,-2,-3,-3
16:43:32.743708,-3,0,-2,-4,-2,-3,-2,1
16:43:32.757701,3,2,2,1,3,4,-1,-2
16:43:32.758701,1,-4,0,0,-1,4,0,-3
16:43:32.780685,-1,1,-4,-1,-1,-3,1,-3
16:43:32.780685,0,0,1,1,0,1,-1,-2
16:43:32.802672,1,1,0,0,0,0,0,1
16:43:32.803674,2,1,-1,-2,5,2,1,0
16:43:32.818663,-4,-4,0,2,-2,1,-4,-2
16:43:32.818663,-3,-2,-4,-17,-52,-2,-1,-1
16:43:32.840651,-3,-1,-1,18,21,1,-1,0
16:43:32.841652,1,-4,-2,-3,-1,-1,0,1
16:43:32.877626,1,1,0,-1,-2,3,3,4
16:43:32.879626,11,1,-2,-3,-16,-2,2,2
16:43:32.879626,-2,0,-3,7,10,-3,-1,-2
16:43:32.879626,-3,-2,-1,0,8,0,0,0
16:43:32.900612,2,-2,-2,-3,-1,-2,1,4
16:43:32.901611,-1,1,0,1,2,-7,0,-1
16:43:32.923598,2,0,1,-2,8,1,0,0
16:43:32.924597,-4,-3,-2,-13,-37,-1,-1,-2
16:43:32.938589,0,-1,-2,5,7,-3,-1,2
16:43:32.938589,-7,-4,-3,3,-1,-1,-1,0
16:43:32.960575,0,-3,2,-1,2,0,0,-3
16:43:32.961573,1,-1,-2,-1,-2,0,1,1
16:43:32.982561,1,2,1,-17,-33,1,0,0
16:43:32.983561,-7,-1,-1,4,11,0,2,-1
16:43:32.998551,-4,-2,0,-3,-2,-3,2,0
16:43:32.998551,-2,2,-1,-1,-3,-1,0,-1
16:43:33.020537,-3,0,-1,15,1,-1,-2,-2
16:43:33.020537,-2,-4,-1,-20,-43,0,-1,-3
16:43:33.042524,-2,0,-4,1,5,-1,3,0
16:43:33.043522,-3,1,0,-2,2,-2,-1,-2
16:43:33.057515,-2,3,-3,-9,-6,-4,0,0
16:43:33.058513,-5,-3,-2,4,-3,-4,3,-1
16:43:33.080500,-2,3,2,-2,-1,-3,-2,-4
16:43:33.081499,1,-2,-2,-1,-1,0,-1,1
16:43:33.103486,-1,-3,-3,-2,-2,-2,0,0
16:43:33.103486,-2,4,-3,-11,-12,0,-1,-2
16:43:33.118476,-2,-1,-1,-11,-37,0,-1,1
16:43:33.118476,-4,-2,-3,4,10,-4,-4,-4
16:43:33.140465,-1,-1,-3,1,4,1,0,-1
16:43:33.141462,-1,2,-1,-7,-9,-7,-2,0
16:43:33.163448,0,-2,-1,25,1,0,1,0
16:43:33.163448,0,-1,-3,4,3,0,0,-4
16:43:33.178439,-1,-2,0,-10,-11,-1,-1,-1
16:43:33.178439,1,0,-3,-1,3,1,-1,0
16:43:33.200427,0,-3,0,-19,-48,-2,3,-3
16:43:33.201427,-1,-3,-4,5,17,0,-1,-4
16:43:33.223411,-2,-4,0,-2,-4,-3,-1,-1
16:43:33.223411,-2,0,-1,1,-1,-4,-2,0
16:43:33.245398,-8,-1,0,1,-1,0,-4,-2
16:43:33.246397,0,-3,-1,0,-4,-1,-1,-1
16:43:33.260391,-5,1,-2,-4,2,1,-1,1
16:43:33.261387,-3,0,-1,5,1,-6,-1,0
16:43:33.283373,-3,2,1,-2,4,4,0,-1
16:43:33.283373,0,-1,-2,-4,-4,-1,-4,-2
16:43:33.298365,1,1,-1,0,0,-1,1,1
16:43:33.305360,-1,-1,-2,15,4,-3,0,-3
16:43:33.320351,3,-2,-3,-6,-12,1,1,0
16:43:33.321350,-2,0,0,-7,-12,-2,-1,1
16:43:33.343336,0,-1,-2,3,8,3,-1,-2
16:43:33.343336,-3,-3,0,-5,-3,-3,-3,1
16:43:33.358327,3,-1,1,1,1,-2,0,4
16:43:33.358327,-5,-2,-3,-4,-7,-1,-2,-4
16:43:33.380313,1,2,1,9,6,3,1,-1
16:43:33.381314,0,0,1,-5,-1,-4,-1,1
16:43:33.403300,-3,1,1,-1,-6,-5,-4,-1
16:43:33.403300,-2,0,-3,0,-2,-6,0,1
16:43:33.418290,-1,-2,-1,5,23,2,0,-3
16:43:33.425285,-4,0,1,-2,-4,-4,0,0
16:43:33.440278,-4,-4,-3,17,10,-2,-3,-2
16:43:33.441276,0,2,1,0,7,-2,0,2
16:43:33.463264,-2,-2,-3,0,4,2,-1,-2
16:43:33.464262,1,0,-3,-11,-12,-3,-3,0
16:43:33.478253,-1,-3,-1,-2,2,-1,1,-3
16:43:33.486248,0,-2,-4,-1,-7,-6,1,0
16:43:33.500241,1,-2,-3,16,31,1,1,0
16:43:33.501240,-1,0,-2,-8,-7,0,-1,-2
16:43:33.523225,-3,0,-3,1,3,0,1,-3
16:43:33.523225,0,-1,0,0,-2,0,3,1
16:43:33.538222,0,1,-1,-3,-3,1,-1,-1
16:43:33.545212,0,2,-1,-12,-36,-3,-2,1
16:43:33.560201,-1,-9,-2,-19,14,3,-1,-5
16:43:33.561201,1,-3,1,-10,-6,0,-1,0
16:43:33.583190,-5,1,2,0,-3,1,-1,1
16:43:33.584187,-3,-1,-1,9,27,5,2,3
16:43:33.598179,0,-3,-3,-6,1,-2,-1,-5
16:43:33.606173,-3,-4,-1,3,3,1,-2,-1
16:43:33.620164,-4,2,-2,2,1,0,-1,0
16:43:33.621164,-1,-1,-3,-1,-1,-4,-1,-1
16:43:33.643151,-1,-4,0,8,4,-1,0,-2
16:43:33.643151,-4,0,1,0,14,2,-1,-2
16:43:33.658142,0,-1,1,5,1,0,-2,-1
16:43:33.666137,0,1,0,10,18,-9,-1,4
16:43:33.681128,-3,-1,0,-7,-7,-3,-1,-4
16:43:33.681128,-1,0,-2,-3,2,-1,1,0
16:43:33.703119,9,2,0,-2,0,0,0,-2
16:43:33.704119,-1,0,-3,0,-5,-4,-2,-1
16:43:33.725099,-1,-1,-2,4,14,-1,-1,-2
16:43:33.726101,-1,-4,0,4,22,-2,-2,0
16:43:33.740090,2,0,0,-1,3,3,1,0
16:43:33.741090,0,-2,-1,-1,-7,-2,1,0
16:43:33.763082,3,-2,0,7,17,1,0,0
16:43:33.764076,0,3,-3,1,10,-3,-3,-1
16:43:33.786063,2,1,-2,-1,1,0,0,-1
16:43:33.786063,0,-2,0,0,-1,2,-2,-3
16:43:33.801053,-4,-5,2,-3,1,-2,-1,0
16:43:33.801053,-2,-6,-5,-29,-11,-1,-1,-3
16:43:33.823039,0,-1,-2,-12,-16,-1,1,-1
16:43:33.824039,-1,2,-4,6,15,-4,-1,-2
16:43:33.845025,-1,-5,-3,-15,-41,0,-3,-2
16:43:33.846033,-2,-2,-1,1,4,-4,-4,-3
16:43:33.861015,-2,-2,0,1,-6,0,2,-3
16:43:33.868011,2,0,-5,-1,-4,0,0,2
16:43:33.883002,-2,-4,-1,0,-2,3,2,-1
16:43:33.884002,-3,1,0,13,28,0,-1,-5
16:43:33.905988,1,0,0,-4,-15,2,2,-3
16:43:33.905988,-2,-4,-3,-1,1,0,-3,0
16:43:33.920985,0,-2,-2,-7,-7,-5,0,-1
16:43:33.920985,0,-1,-1,7,9,-1,-1,-3
16:43:33.942964,0,1,1,14,28,-1,-1,0
16:43:33.943964,-3,-1,0,-12,-3,-5,-3,-2
16:43:33.965950,0,2,-1,-10,0,5,0,2
16:43:33.965950,0,0,-3,14,-7,-8,-1,-1
16:43:33.980941,-2,1,-4,-26,-39,-5,-4,-3
16:43:33.987936,-6,-4,1,10,-3,4,-5,-5
16:43:34.002927,-1,-1,-2,-8,-20,0,3,1
16:43:34.003927,0,3,5,49,57,-4,0,1
16:43:34.025913,1,0,-4,-42,-24,9,-1,1
16:43:34.025913,0,0,9,10,6,-12,0,-1
16:43:34.040912,-2,-3,-1,7,24,9,4,3
16:43:34.047900,2,2,5,49,-17,-17,2,1
16:43:34.062890,-5,-8,-9,11,5,19,-8,-5
16:43:34.063890,-1,-4,-1,17,35,-26,-5,-5
16:43:34.085877,-4,-6,4,61,127,36,-1,-3
16:43:34.085877,2,2,-19,-39,87,-17,5,3
16:43:34.100867,-1,-3,-4,-7,103,32,3,-1
16:43:34.107862,4,8,11,127,-128,-56,4,5
16:43:34.122854,7,10,1,-91,-128,-52,4,2
16:43:34.123853,-11,-23,-43,-108,-128,-128,-15,-11
16:43:34.146840,-8,-1,31,-24,127,9,-12,-11
16:43:34.146840,1,-3,-37,-21,127,103,15,8
16:43:34.160830,7,17,104,127,127,44,-3,3
16:43:34.167826,25,71,28,-128,126,75,20,24
16:43:34.182816,0,-30,2,127,127,-106,-9,-3
16:43:34.183816,28,25,76,127,127,127,36,33
16:43:34.205803,18,14,-1,127,-128,-128,4,14
16:43:34.205803,-7,-23,-123,-28,-128,-12,-6,-5
16:43:34.220792,-8,-23,-43,33,-99,-103,-5,-2
16:43:34.235784,11,-7,40,-112,-2,-1,0,8
16:43:34.242779,14,90,95,127,-128,-29,16,10
16:43:34.243778,-33,-41,-1,-66,-98,-35,-29,-33
16:43:34.268763,-16,-45,-61,-110,54,-17,-31,-19
16:43:34.268763,5,43,-4,-116,-128,-99,82,22
16:43:34.310737,-24,-17,4,-111,127,81,-11,-19
16:43:34.312736,-5,-43,-76,-29,127,11,-10,-12
16:43:34.313736,-9,-64,-79,32,127,127,-1,1
16:43:34.313736,33,117,109,-128,-128,-128,-18,21
16:43:34.334722,-47,-121,-99,-128,-128,-96,-30,-43
16:43:34.339720,10,-9,-81,-128,-128,-49,-13,8
16:43:34.351713,3,0,-13,127,127,127,42,4
16:43:34.355709,14,-20,-89,-128,-128,-44,-42,-1
16:43:34.370700,-45,-128,-122,-128,-56,-128,-12,-27
16:43:34.371700,3,-4,-22,-109,-128,-128,-14,4
16:43:34.392688,-4,65,89,127,127,127,15,2
16:43:34.393685,-16,-85,-81,127,127,127,66,26
16:43:34.407676,17,119,92,-128,-128,-128,-41,18
16:43:34.408676,-46,-71,-45,-128,-128,-128,-22,-34
16:43:34.422667,8,11,25,-128,-128,-80,-3,3
16:43:34.423667,20,40,27,127,127,72,25,2
16:43:34.445653,-88,-128,-128,58,127,127,1,-54
16:43:34.446653,32,21,-28,127,127,-128,6,24
16:43:34.460643,0,27,22,62,-128,11,-13,-10
16:43:34.468640,2,0,10,24,127,-102,-6,3
16:43:34.483629,-2,-9,-40,-128,-128,46,-1,-1
16:43:34.483629,14,37,54,-128,-128,-128,-15,4
16:43:34.505616,-13,-16,-11,-128,-128,73,-1,-13
16:43:34.506615,12,43,61,-128,-32,-2,-4,3
16:43:34.520606,-6,-36,-27,116,127,67,5,-4
16:43:34.527602,-11,10,17,23,-128,61,1,-10
16:43:34.542592,-23,-33,-30,127,127,74,4,-12
16:43:34.543593,15,19,-4,-128,-8,-23,2,11
16:43:34.565579,-4,6,28,-68,-95,-104,-1,-2
16:43:34.566578,-3,-14,-31,-104,-128,55,11,-4
16:43:34.580571,8,39,37,127,82,127,7,8
16:43:34.588567,9,4,-14,-128,-128,-128,-9,6
16:43:34.610550,-21,-28,-18,-57,-128,-30,-13,-17
16:43:34.611551,8,21,23,-52,-128,-52,7,6
16:43:34.625542,-2,11,11,127,-13,127,4,5
16:43:34.626540,16,47,42,-128,-128,-115,-5,5
16:43:34.648527,2,-15,-13,30,-128,-128,-14,5
16:43:34.648527,0,-13,-7,127,-12,17,8,8
16:43:34.663519,4,31,19,-92,-128,2,-1,-2
16:43:34.663519,3,31,41,-75,-128,-119,-12,-2
16:43:34.685505,-7,0,-17,97,-128,-128,-12,-1
16:43:34.686504,7,35,41,-128,-128,-62,-23,-6
16:43:34.708490,11,-11,-8,-23,-128,-54,-5,6
16:43:34.708490,-10,-26,-43,-128,99,112,-3,-5
16:43:34.723481,10,48,45,-94,-128,46,-9,-2
16:43:34.730478,-8,-5,-10,-128,-128,-68,-12,-5
16:43:34.745467,-11,-28,-5,36,119,-13,5,-6
16:43:34.746468,13,47,23,-48,39,21,-7,2
16:43:34.768454,-5,-9,-5,-119,-128,-35,-11,-6
16:43:34.775452,-19,-57,-38,118,127,20,-6,-8
16:43:34.783445,11,9,18,127,127,60,14,8
16:43:34.790444,15,29,53,67,127,12,8,10
16:43:34.805484,17,35,51,127,127,51,16,16
16:43:34.806431,14,22,2,-128,-128,-128,-5,7
16:43:34.835483,-6,-16,-10,-102,-88,58,0,-4
16:43:34.836412,9,8,-18,-12,106,42,5,6
16:43:34.843414,-20,-21,-11,20,90,0,-9,-13
16:43:34.843414,10,40,42,21,127,127,14,5
16:43:34.873389,-56,-110,-75,4,-17,50,-13,-37
16:43:34.873389,20,42,35,-111,-128,-128,-2,11
16:43:34.888379,0,-1,4,69,22,76,5,3
16:43:34.888379,-16,-42,-33,-21,-113,-23,-16,-10
16:43:34.903370,-5,-23,-42,-123,-128,-58,-12,-6
16:43:34.903370,-15,-40,-56,-89,-120,-128,-12,-4
16:43:34.925360,4,19,40,127,127,127,17,4
16:43:34.926355,-10,-23,-35,-47,0,11,-8,-3
16:43:34.948342,-17,-26,10,48,125,70,1,-12
16:43:34.948342,5,4,3,-11,-107,-125,-4,2
16:43:34.964331,-24,-59,-40,127,111,-5,-11,-15
16:43:34.970331,9,21,9,16,-90,-48,1,8
16:43:34.985321,2,3,-5,6,-128,-119,2,3
16:43:34.986318,8,15,18,33,-128,7,8,7
16:43:35.008305,9,16,3,-128,-128,-128,-18,5
16:43:35.008305,-10,-17,-7,-34,-71,25,-1,-8
16:43:35.023310,-5,2,-3,48,33,-32,-7,-6
16:43:35.038287,-3,-19,-26,-75,27,-7,-5,-1
16:43:35.045285,5,9,0,-78,-116,-16,1,5
16:43:35.046280,8,21,3,-103,-128,-68,-2,5
16:43:35.068271,-1,-6,-5,11,-15,13,2,-1
16:43:35.069268,4,6,1,-85,-47,-14,1,3
16:43:35.083261,-34,-51,-39,-1,23,-5,-21,-28
16:43:35.091256,1,-1,-2,-23,-30,-3,-4,1
16:43:35.106244,-4,3,2,-1,-3,-4,1,2
16:43:35.106244,-7,-15,-30,-30,-19,-14,-7,-6
16:43:35.128233,-1,2,2,6,3,1,1,0
16:43:35.129230,-2,-4,0,1,2,-1,0,-3
16:43:35.151217,-6,1,4,4,1,-4,-10,-17
16:43:35.151217,43,2,4,4,7,22,25,30
16:43:35.166206,-39,-7,0,1,-7,-23,-9,-63
16:43:35.166206,-100,-3,5,0,0,-8,53,-11
16:43:35.188195,29,4,-5,-11,14,97,-92,106
16:43:35.189193,68,-128,-68,-52,-81,-128,127,13
16:43:35.203185,59,-10,0,0,-8,4,-128,40
16:43:35.211182,39,-105,-3,6,-34,-108,-128,-96
16:43:35.226170,-23,97,7,-13,-23,-21,127,104
16:43:35.226170,-22,-128,-26,-24,-9,-7,-128,-72
16:43:35.256154,-99,30,23,18,15,-11,127,7
16:43:35.257154,2,27,-11,-53,-52,6,-34,-17
16:43:35.263148,-13,-1,-1,66,127,36,-35,-4
16:43:35.279140,-22,-38,-11,-35,-27,-14,-42,-16
16:43:35.286135,17,22,25,127,127,44,-7,9
16:43:35.293131,-42,24,6,-68,-71,26,-5,8
16:43:35.308121,7,-116,-46,-77,33,6,-11,1
16:43:35.309118,-128,111,30,127,127,-39,127,-79
16:43:35.323111,-106,-32,-56,-100,-120,-63,-101,-81
16:43:35.331108,127,0,3,71,127,38,-128,127
16:43:35.346096,-29,26,40,-41,-29,67,-7,-14
16:43:35.347100,15,20,24,-119,84,2,27,-1
16:43:35.368083,127,2,15,127,115,5,1,24
16:43:35.369082,100,57,19,7,43,-12,-75,127
16:43:35.384072,95,11,-10,-33,5,46,30,127
16:43:35.399066,50,14,13,27,24,19,-44,-27
16:43:35.406061,-3,4,-12,0,-12,-26,40,-21
16:43:35.407060,0,2,-2,48,127,4,-49,-17
16:43:35.429047,-9,-10,-5,11,77,8,8,1
16:43:35.429047,7,10,8,-36,-103,-5,-33,28
16:43:35.444036,0,-19,-10,22,9,10,12,-18
16:43:35.451033,-30,-10,-1,16,-35,-29,-21,-27
16:43:35.466024,22,12,3,44,54,4,22,-2
16:43:35.467020,-14,-21,10,11,4,-1,13,-3
16:43:35.489006,6,1,-6,-6,-12,5,7,13
16:43:35.489006,-3,-4,1,-29,-34,1,-29,17
16:43:35.503997,11,7,4,14,87,21,-28,33
16:43:35.510996,0,11,11,48,104,25,11,5
16:43:35.525986,80,1,3,3,-57,-3,6,17
16:43:35.533982,46,4,4,11,74,49,31,38
16:43:35.548969,-4,16,-7,-23,-8,15,17,-5
16:43:35.548969,-9,-8,-9,0,-86,-19,0,4
16:43:35.563961,-5,7,-5,-81,-107,-2,3,-12
16:43:35.570959,4,-14,2,-44,-54,11,5,13
16:43:35.585950,-17,-14,-5,12,-4,-10,-11,-16
16:43:35.593943,-14,-15,-16,-43,53,-4,-12,-15
16:43:35.608932,-16,-8,-6,17,-5,1,-12,-11
16:43:35.608932,2,0,1,-13,3,20,10,-7
16:43:35.630922,-6,-5,-7,16,-7,-23,-3,-9
16:43:35.631919,10,2,6,16,71,19,-51,23
16:43:35.645912,-12,6,4,29,12,-3,34,-14
16:43:35.653904,1,2,-7,-3,5,1,6,5
16:43:35.668895,-1,1,-5,-35,-92,-7,-2,-1
16:43:35.668895,-6,-4,3,26,18,0,-1,0
16:43:35.690884,-1,0,3,-16,3,-1,5,7
16:43:35.691881,0,-2,-3,5,-1,0,1,1
16:43:35.705875,1,6,-1,-1,-4,2,5,1
16:43:35.713867,2,4,1,0,-4,3,5,-6
16:43:35.728859,16,5,-4,24,-8,-7,-5,6
16:43:35.728859,23,2,-2,-29,-43,6,-1,12
16:43:35.750847,0,-1,-2,37,119,-2,2,1
16:43:35.751846,-9,-8,-1,7,28,-3,-6,-11
16:43:35.765837,-2,0,0,-7,6,7,0,0
16:43:35.766835,4,0,1,1,-7,7,2,-2
16:43:35.788821,-1,2,-2,-5,-48,-10,2,2
16:43:35.788821,6,-3,-2,-2,22,9,-5,0
16:43:35.810810,1,3,1,-3,-19,3,2,1
16:43:35.811806,13,8,3,-38,-18,13,2,4
16:43:35.825801,8,-2,-8,-28,-47,-3,0,4
16:43:35.826798,-3,-3,-2,-1,1,3,-1,-3
16:43:35.848783,0,3,-1,-4,-6,-1,1,1
16:43:35.848783,4,3,-1,0,-4,2,1,3
16:43:35.871771,-4,-5,1,10,-3,2,0,-1
16:43:35.878765,4,-3,1,-2,-1,2,6,5
16:43:35.885766,1,6,2,-1,-103,0,-4,0
16:43:35.893756,2,-5,-3,1,35,4,-6,-7
16:43:35.908749,-2,1,-2,-5,-47,-5,0,4
16:43:35.909748,-4,5,6,22,9,6,5,-2
16:43:35.930736,-5,8,-7,-50,-90,-17,-1,-5
16:43:35.931735,-6,-2,-3,14,21,1,-2,-5
16:43:35.945726,3,3,-2,-10,-19,0,3,0
16:43:35.953722,1,3,1,1,-2,-3,-1,2
16:43:35.975707,-1,0,-1,4,4,-3,-1,-1
16:43:35.976704,1,-4,1,20,9,0,-1,0
16:43:35.990699,-6,-1,-1,0,8,-1,-4,-4
16:43:35.991695,0,-1,2,-5,-8,-6,-2,-1
16:43:36.005689,-4,-2,-1,-6,-16,5,2,-3
16:43:36.021676,1,-1,-2,8,4,-5,0,3
16:43:36.035672,1,-4,1,-5,-1,0,-1,-3
16:43:36.036667,0,2,0,9,-9,-3,0,-1
16:43:36.050662,-3,-5,-1,29,5,1,-2,-4
16:43:36.051658,-1,0,1,-6,6,-4,3,0
16:43:36.066649,-6,1,3,4,-36,-14,1,-2
16:43:36.073647,4,-2,-1,17,24,7,0,1
16:43:36.088635,5,-1,1,18,54,5,-6,-3
16:43:36.089638,2,3,1,-3,-12,-2,1,1
16:43:36.111621,6,2,-5,-35,-35,-2,-1,-5
16:43:36.111621,-2,-2,-1,10,29,1,-1,-3
16:43:36.126613,2,-5,-2,-2,1,-1,-4,-3
16:43:36.133610,-12,0,0,22,-22,-4,-8,-6
16:43:36.148598,-1,-3,2,8,23,7,9,9
16:43:36.149599,-1,-3,-1,-8,-47,0,3,1
16:43:36.171585,-5,-1,0,20,3,-5,4,-1
16:43:36.171585,-2,1,2,-5,0,5,-1,-3
16:43:36.186587,1,-2,1,16,30,3,-1,0
16:43:36.193573,0,-2,1,2,3,-5,-1,-5
16:43:36.208563,1,0,-2,12,7,6,5,1
16:43:36.209562,0,-2,-5,-2,-33,-4,1,0
16:43:36.230547,-4,0,-1,0,38,9,0,-2
16:43:36.231549,-3,1,1,13,0,-2,2,1
16:43:36.246539,-6,1,0,-7,-15,-11,-3,-5
16:43:36.253535,-2,-1,-1,10,19,2,1,3
16:43:36.268526,-3,3,-1,9,1,-1,3,-1
16:43:36.268526,-3,1,-7,-15,11,3,0,-1
16:43:36.291510,-2,2,3,3,10,-1,-3,2
16:43:36.291510,-4,-4,-1,-3,-3,2,0,-3
16:43:36.306500,-1,0,-1,-4,-3,-3,2,2
16:43:36.313495,-1,-3,-2,-31,-17,1,0,2
16:43:36.328489,-5,0,-2,-3,42,8,-1,-3
16:43:36.329491,0,-2,4,6,19,-2,-1,2
16:43:36.351472,8,1,-2,-2,6,1,2,-1
16:43:36.351472,1,0,3,-5,-8,2,0,-2
16:43:36.366462,-4,2,-3,3,4,2,-2,-1
16:43:36.373461,2,1,-4,-6,-6,-7,-3,-1
16:43:36.388452,-4,-2,1,-3,-8,-3,0,-4
16:43:36.389451,-1,-3,-1,-2,11,8,0,0
16:43:36.411436,-1,2,1,6,5,-6,-2,0
16:43:36.411436,-3,1,-1,-26,-47,1,0,-2
16:43:36.426428,0,-4,-2,6,-39,-15,-2,0
16:43:36.433424,-3,-3,0,7,17,0,-5,-9
16:43:36.448414,0,4,3,4,-6,-5,-2,2
16:43:36.449414,-1,0,1,-1,-5,-1,-5,1
16:43:36.471398,-3,-4,-6,-8,-25,1,-1,-4
16:43:36.471398,-2,-2,-3,-11,-12,-1,-2,1
16:43:36.486388,-1,-1,0,32,-56,-2,-4,-1
16:43:36.493387,-2,-4,-3,10,25,6,-1,0
16:43:36.508377,5,0,0,-5,10,-2,-1,2
16:43:36.509374,3,-1,0,7,-10,-4,-4,-1
16:43:36.531360,1,-1,-1,0,3,1,3,1
16:43:36.531360,1,0,-1,3,-36,-3,-1,-1
16:43:36.553350,-7,0,-1,-3,-41,-8,-1,-2
16:43:36.554347,-4,-2,0,7,26,4,-1,-1
16:43:36.568340,-4,-1,1,2,7,-4,-5,-3
16:43:36.569340,0,1,0,-5,1,0,3,4
16:43:36.598320,2,-1,1,-3,-6,-1,-2,0
16:43:36.599319,2,2,0,-20,-24,-2,-3,1
16:43:36.613310,-3,-7,0,8,13,-3,-2,-2
16:43:36.614309,-2,-2,-5,9,33,3,1,0
16:43:36.628303,2,3,3,-5,-59,-9,1,-1
16:43:36.629301,2,0,-1,-27,9,2,-1,1
16:43:36.651287,-1,-1,1,-4,-4,-5,3,0
16:43:36.651287,-6,-7,-3,-12,1,1,-3,-3
16:43:36.673275,1,1,1,0,-5,-4,-3,0
16:43:36.674272,-4,-1,-3,-4,-3,-5,-1,-3
16:43:36.688263,-2,-1,0,2,-19,-6,-4,-4
16:43:36.689263,-3,-3,0,1,38,4,1,-2
16:43:36.711249,-1,3,1,29,58,1,-1,0
16:43:36.712248,0,-2,0,-7,-9,6,3,0
16:43:36.733238,-1,0,1,11,30,9,-4,-1
16:43:36.734235,-1,0,2,-11,9,5,2,5
16:43:36.748228,-4,-1,4,8,10,0,-5,-5
16:43:36.749226,-4,0,0,-10,-3,-3,2,1
16:43:36.771214,1,-2,0,-16,10,-1,3,0
16:43:36.771214,0,2,0,-9,-18,-2,0,-2
16:43:36.793201,-1,0,-6,-16,-31,-3,0,0
16:43:36.794198,2,-1,2,16,20,4,0,-2
16:43:36.808190,-3,-3,-3,-4,-11,-4,1,-2
16:43:36.816186,3,1,-1,8,-1,3,0,1
16:43:36.839171,-4,-4,-2,-8,5,2,-2,-3
16:43:36.839171,2,2,-1,-3,-1,2,3,2
16:43:36.853162,1,0,-3,-2,5,4,-2,-2
16:43:36.854163,-2,-3,-2,1,2,-10,-2,0
16:43:36.868153,3,-2,2,11,-44,-6,0,3
16:43:36.869151,-11,-3,-4,-7,5,-6,-3,-3
16:43:36.891140,-4,0,-1,-5,4,4,-1,-1
16:43:36.892137,7,-3,-1,-22,-6,3,-1,6
16:43:36.914123,-5,-1,0,-4,-8,-2,-7,-6
16:43:36.914123,-1,0,1,4,6,6,0,2
16:43:36.929114,-2,0,0,-3,-35,-1,-2,-1
16:43:36.929114,1,-1,-2,-2,2,5,0,-2
16:43:36.951103,1,4,-1,-17,-9,10,2,3
16:43:36.952101,-5,-3,0,-1,8,-2,1,-2
16:43:36.981082,2,-1,2,9,16,3,-2,-2
16:43:36.982083,0,-3,-2,-6,-5,0,-1,0
16:43:36.988077,5,1,0,0,-1,-1,-1,3
16:43:36.989079,-6,-8,-2,8,0,-1,0,-2
16:43:37.011066,-2,-1,-2,-6,-10,-3,2,-6
16:43:37.012065,1,2,-1,2,7,-2,-1,-2
16:43:37.034049,0,1,-2,3,-1,0,-3,-4
16:43:37.034049,-1,2,-1,4,14,0,1,2
16:43:37.048042,-3,-3,-4,-12,-35,2,-4,-4
16:43:37.049041,-3,3,1,25,46,5,-1,-1
16:43:37.071028,2,-1,-2,-6,4,2,0,-1
16:43:37.072027,-2,1,-2,-6,-5,1,3,6
16:43:37.094013,-1,-1,-2,-3,-6,1,0,-2
16:43:37.094013,-6,-6,-2,-2,-3,-1,4,1
16:43:37.108004,-1,-4,0,23,-21,1,-1,0
16:43:37.109003,0,-1,-1,10,35,0,1,-1
16:43:37.130991,-1,0,1,-10,-8,1,-1,0
16:43:37.131988,0,3,3,2,-52,-1,0,0
16:43:37.153975,-3,-3,-3,-23,20,3,-4,-5
16:43:37.153975,-3,0,2,11,-8,-7,2,1
16:43:37.168966,4,-1,0,-2,3,-1,-6,-3
16:43:37.168966,2,0,0,-3,-4,-3,1,3
16:43:37.190955,-3,-2,-2,-2,-5,0,2,0
16:43:37.191953,3,0,2,20,2,-3,-3,-1
16:43:37.213937,1,1,-2,17,72,-2,-1,-3
16:43:37.213937,-1,-4,-3,2,39,-1,-3,-3
16:43:37.228928,2,-2,-4,-22,-62,-12,0,0
16:43:37.235926,-2,0,-1,6,9,1,-1,-4
16:43:37.250917,-3,-4,1,-9,-9,-6,-1,-2
16:43:37.251914,-1,1,1,-4,-7,0,2,2
16:43:37.273900,-5,-2,-3,2,-3,1,0,-1
16:43:37.273900,-4,0,1,0,1,-2,-1,-3
16:43:37.295889,-1,-3,0,-2,0,1,1,1
16:43:37.296886,-3,2,1,36,37,-5,-3,-1
16:43:37.310879,-2,-2,0,-9,8,2,-3,-3
16:43:37.311877,-6,1,-1,3,-35,-3,-1,2
16:43:37.333864,-3,2,2,-13,26,1,3,4
16:43:37.333864,-2,0,-1,1,18,-1,-3,-6
16:43:37.355852,-1,-3,-2,-8,-27,-6,1,0
16:43:37.356851,0,0,1,3,1,-1,3,1
16:43:37.378835,7,4,0,-1,3,2,3,-1
16:43:37.378835,0,-1,-2,14,32,-2,-1,-2
16:43:37.393826,-4,-2,1,-1,3,-2,1,-1
16:43:37.393826,1,2,0,28,-29,10,1,3
16:43:37.415815,-3,0,2,2,10,-3,1,-3
16:43:37.416812,5,-6,-3,0,-3,1,-1,0
16:43:37.430804,0,2,2,4,-2,-6,1,1
16:43:37.431802,1,2,4,1,0,4,1,-3
16:43:37.453789,-1,-1,-1,-6,-22,-9,-1,-1
16:43:37.453789,-1,0,-2,14,27,1,0,-3
16:43:37.475777,-2,-3,-5,0,1,-1,1,0
16:43:37.476775,0,1,0,2,2,-1,4,4
16:43:37.490768,-4,-1,0,-8,-11,1,-3,-4
16:43:37.491768,0,-1,4,4,18,2,1,0
16:43:37.513751,0,-1,1,-4,38,2,2,3
16:43:37.513751,0,1,-2,4,-1,0,-1,-1
16:43:37.535740,-6,-3,-3,-7,2,-3,-1,-2
16:43:37.536737,-2,-1,1,2,-9,-6,-2,1
16:43:37.550731,-6,0,0,-6,-16,-8,2,-1
16:43:37.551728,1,1,4,-2,-1,3,-1,1
16:43:37.573714,-1,-1,-2,12,38,8,-1,-1
16:43:37.573714,-6,1,-2,9,14,2,2,-4
16:43:37.595703,-8,-12,-6,-2,8,1,1,3
16:43:37.596700,-3,-5,-4,-1,-9,-6,-3,-1
16:43:37.610692,-2,-2,2,20,-37,-2,-1,-4
16:43:37.611690,-4,-2,-4,-9,3,1,-3,-4
16:43:37.633680,-1,3,-2,1,8,-1,-1,-1
16:43:37.633680,2,1,1,1,1,6,6,2
16:43:37.655664,0,2,-1,-11,-28,0,0,0
16:43:37.656663,-2,0,1,8,1,-2,2,1
16:43:37.670656,1,5,3,5,-10,-6,3,0
16:43:37.671654,-6,-5,-1,-8,-16,-2,-6,-4
16:43:37.693639,8,4,1,1,8,0,2,2
16:43:37.693639,1,3,2,-20,53,5,2,3
16:43:37.716638,0,1,1,-7,-8,-7,-4,-2
16:43:37.716638,-2,-2,-2,-10,-21,-3,1,-1
16:43:37.738612,3,1,0,-7,7,1,2,-1
16:43:37.738612,-1,-2,-1,3,-3,-4,-1,-1
16:43:37.753606,-3,1,2,-3,22,3,2,0
16:43:37.753606,-6,-3,-1,-16,-18,0,4,2
16:43:37.775591,0,-2,-3,-1,12,2,-2,-2
16:43:37.776588,-7,-4,1,4,1,-2,-2,-4
16:43:37.791579,-3,0,-2,-2,-10,-3,-1,0
16:43:37.791579,0,-1,-2,-7,2,5,-1,-1
16:43:37.813568,-5,-3,-1,13,27,1,-4,0
16:43:37.814567,-1,2,0,4,10,-1,-3,1
16:43:37.836552,-1,1,-1,-7,-34,3,3,-4
16:43:37.836552,1,2,-1,-4,9,1,-2,-3
16:43:37.850545,3,-3,1,2,10,0,2,0
16:43:37.851543,1,2,-3,-6,27,2,0,-1
16:43:37.873531,-5,0,-1,-2,5,-3,-3,-4
16:43:37.874528,-5,-3,-3,3,-2,-5,-1,-6
16:43:37.895516,0,1,0,-5,0,0,1,-1
16:43:37.896516,-1,0,1,-25,47,4,-3,-2
16:43:37.910506,1,-2,-1,15,33,2,-1,3
16:43:37.911506,-1,-1,-5,-5,-3,-6,-3,1
16:43:37.933494,-3,-1,-1,0,2,-3,-3,-3
16:43:37.934490,-6,3,-1,-3,8,-3,-3,-1
16:43:37.956477,1,2,0,-1,1,3,4,2
16:43:37.956477,0,2,0,-3,3,-4,-1,4
16:43:37.971467,5,3,3,3,-4,-5,-7,-5
16:43:37.971467,-1,0,0,10,22,4,-2,1
16:43:37.993457,0,-2,-3,28,34,-3,1,0
16:43:37.994455,3,-1,1,8,-27,-1,-2,0
16:43:38.016442,0,-1,0,-5,-2,-2,-1,-1
16:43:38.016442,0,-3,0,-6,-45,-5,-2,-1
16:43:38.031430,-1,-2,-3,0,8,1,-3,-5
16:43:38.031430,2,1,1,-1,-9,-1,1,2
16:43:38.053419,-4,-3,-2,-10,-11,0,0,-7
16:43:38.054418,-1,0,-3,11,32,-3,-1,0
16:43:38.076405,9,0,-2,4,4,3,-1,3
16:43:38.091393,-2,0,-1,-4,-47,-4,-1,-1
16:43:38.091393,-1,-1,-2,2,-8,-4,-4,0
16:43:38.092392,-5,0,2,4,47,2,-6,-6
16:43:38.113379,1,-2,-3,-1,3,-2,-1,-1
16:43:38.114380,2,4,2,-2,4,2,3,3
16:43:38.136366,0,0,-2,0,6,-3,-2,0
16:43:38.136366,-3,-4,-2,-1,1,-3,-2,-2
16:43:38.151358,1,2,-1,-33,-65,3,-2,-1
16:43:38.151358,2,-4,-1,9,18,-2,0,-1
16:43:38.173345,2,2,0,26,0,2,2,-1
16:43:38.174343,-5,-1,-5,-10,5,-1,1,0
16:43:38.196328,1,-3,4,7,34,-1,0,0
16:43:38.196328,3,-5,-2,-4,-6,-7,3,6
16:43:38.211321,-2,-2,-5,1,7,-4,-2,-3
16:43:38.218317,3,2,0,6,-6,3,1,2
16:43:38.233305,1,1,0,1,4,1,3,4
16:43:38.234307,2,2,1,1,0,-3,3,1
16:43:38.256291,1,-2,-1,3,4,0,-6,-4
16:43:38.256291,-4,-3,0,-4,-2,1,-1,0
16:43:38.278280,-5,-1,-1,-1,0,2,2,2
16:43:38.279277,-4,2,2,9,49,2,0,-1
16:43:38.293270,-2,-1,0,5,15,-5,-2,-1
16:43:38.294268,-2,0,4,18,31,-2,1,-4
16:43:38.316253,0,-3,-4,-17,-28,-3,-1,0
16:43:38.316253,5,4,2,-3,2,-5,-1,0
16:43:38.338243,0,2,-1,1,-1,2,0,1
16:43:38.339239,-2,-1,-2,-2,-6,-1,-1,-2
16:43:38.353231,-2,-1,-2,2,3,-1,4,-2
16:43:38.354230,-3,-1,-1,-1,-4,-6,-1,-3
16:43:38.376219,0,2,-3,-1,0,0,-2,0
16:43:38.376219,-5,-1,-3,-8,56,4,-1,-3
16:43:38.398203,0,-2,3,12,16,-7,-3,2
16:43:38.399203,-3,-2,1,-25,-49,-3,-3,-3
16:43:38.413194,-4,-1,-3,3,11,4,0,0
16:43:38.414193,2,1,2,1,1,2,3,3
16:43:38.436183,0,-1,-1,-10,-4,-1,0,2
16:43:38.437182,-6,1,1,3,-3,-3,-3,-7
16:43:38.458168,-1,0,-1,-4,-7,-2,-2,1
16:43:38.459165,-1,-2,-3,-1,2,4,0,-4
16:43:38.474158,1,1,2,-2,-3,-5,-1,0
16:43:38.474158,-1,4,0,3,-83,2,1,3
16:43:38.496143,-3,-1,-5,1,11,-3,-3,-2
16:43:38.497148,0,4,-1,-3,-1,3,3,3
16:43:38.518131,3,0,-1,1,-8,0,-1,3
16:43:38.519131,-2,-1,-1,2,6,-1,-1,-2
16:43:38.533122,-3,0,-1,-2,-4,-2,-3,0
16:43:38.534119,1,3,0,1,-5,-2,0,-3
16:43:38.556108,4,2,-3,-12,-23,-3,3,2
16:43:38.556108,-6,-4,-1,-1,-38,-1,-4,-2
16:43:38.578094,-2,3,0,16,-6,4,1,1
16:43:38.579090,0,-5,-4,0,13,-5,2,1
16:43:38.594082,0,3,1,-2,9,-1,1,-2
16:43:38.594082,-5,0,-1,-2,-6,1,-2,-5
16:43:38.616070,4,1,-1,0,-6,-3,0,1
16:43:38.617070,2,1,-1,-3,-3,0,-3,2
16:43:38.638055,-1,-1,0,-14,-19,1,0,1
16:43:38.639056,0,0,0,17,88,4,1,3
16:43:38.654045,0,-2,2,9,37,4,3,1
16:43:38.654045,-3,-3,-3,-3,0,1,0,0
16:43:38.676033,-3,1,0,0,-4,5,1,-2
16:43:38.677033,13,3,0,-31,-9,2,3,4
16:43:38.698019,-1,-3,2,2,16,-1,-4,-3
16:43:38.699017,1,1,1,-3,1,1,0,1
16:43:38.714007,4,-1,-1,-7,0,0,1,0
16:43:38.714007,1,0,-1,16,12,-7,1,-4
16:43:38.735996,3,3,-1,-6,4,0,1,5
16:43:38.736993,1,0,1,-20,7,6,-2,0
16:43:38.757981,-2,-3,0,2,-11,-4,1,-1
16:43:38.758979,-5,3,0,0,1,3,1,0
16:43:38.780967,1,0,-2,-2,-3,-1,1,0
16:43:38.781964,1,-3,-1,-3,-4,-3,-3,-3
16:43:38.795957,-3,1,2,5,-4,-4,-4,-5
16:43:38.796955,3,-1,-1,-1,1,-4,-1,1
16:43:38.818942,-5,-3,-1,-12,-21,-2,-3,-4
16:43:38.818942,0,-1,-4,-4,60,5,5,2
16:43:38.832934,-3,0,2,24,-11,-3,-1,-1
16:43:38.833933,-7,-4,-2,-5,-2,-3,-6,-6
16:43:38.855922,-4,-3,-3,-9,-8,1,-4,-6
16:43:38.856918,1,0,-1,1,-2,0,2,1
16:43:38.878904,-2,-2,-4,0,-1,0,-3,-2
16:43:38.878904,0,2,-1,-29,-7,-3,-3,-4
16:43:38.893898,-5,1,1,0,3,1,-1,-1
16:43:38.900894,-3,-3,-2,-7,-7,-2,-3,-3
16:43:38.915885,2,3,2,-25,-46,1,-1,4
16:43:38.916882,-2,-3,0,8,25,-2,-3,-3
16:43:38.938868,-4,-4,-6,-3,-4,1,1,2
16:43:38.938868,-1,2,2,11,2,0,-1,-1
16:43:38.953861,-3,-3,-2,-3,2,-1,-2,-1
16:43:38.960856,-1,-2,-3,-8,9,1,1,0
16:43:38.975849,0,-2,-1,1,9,-2,1,-1
16:43:38.976844,-5,-4,2,-3,-20,-2,-3,3
16:43:38.997833,-3,-2,0,-3,1,-3,-4,-3
16:43:38.998830,0,-1,-1,0,-3,0,2,-2
16:43:39.012822,-1,0,1,-3,0,0,-2,-5
16:43:39.020823,1,-1,0,3,0,-1,-3,2
16:43:39.035808,-4,-5,-4,0,0,-3,0,0
16:43:39.035808,1,2,-2,10,20,0,0,-2
16:43:39.057796,-1,0,-2,-7,-3,-4,1,0
16:43:39.058793,1,-1,-2,4,7,2,4,2
16:43:39.073785,-3,2,2,-1,-1,-3,-2,1
16:43:39.080779,-1,-1,0,-2,2,0,-2,2
16:43:39.095771,-2,-4,1,0,-3,-1,1,-3
16:43:39.096770,0,-2,-2,-2,-6,-3,0,-1
16:43:39.125752,5,-2,-5,8,13,1,-3,1
16:43:39.125752,-4,0,-4,-3,-4,-2,-3,-6
16:43:39.133746,1,2,-2,21,27,-9,0,2
16:43:39.140742,-3,-3,-3,-2,37,4,-4,-3
16:43:39.155734,3,0,-5,1,-20,-8,0,1
16:43:39.155734,-4,-2,1,2,6,2,-1,-4
16:43:39.178721,-2,2,-3,0,-7,0,-1,1
16:43:39.185721,0,-3,-3,3,5,-1,3,2
16:43:39.200708,-1,-2,-1,-4,-3,0,-2,-1
16:43:39.201707,2,2,-1,1,-8,-4,0,2
16:43:39.215699,2,-5,-1,-14,-5,1,4,1
16:43:39.216698,11,0,-1,-26,-48,-7,-1,-1
16:43:39.239680,-4,1,-1,6,-17,-3,-5,-5
16:43:39.240681,2,3,2,-14,6,-2,-2,0
16:43:39.253672,2,1,2,1,2,4,0,0
16:43:39.268663,-1,1,-2,-1,1,-1,-3,0
16:43:39.275659,5,1,-1,-1,-4,-3,-2,3
16:43:39.276660,-1,0,-3,-3,-5,-4,-4,1
16:43:39.298646,-1,0,-1,1,14,4,0,-1
16:43:39.298646,1,1,0,-3,-11,-2,-1,-1
16:43:39.313638,1,1,0,-21,-53,-4,1,-1
16:43:39.320631,-4,-3,0,4,-29,-1,1,0
16:43:39.335622,-5,-3,1,1,11,3,3,-1
16:43:39.336621,-4,-7,-2,-6,26,-5,-4,1
16:43:39.357621,-3,1,1,-13,-2,-4,-3,-2
16:43:39.358607,-1,-2,0,6,12,7,2,1
16:43:39.380595,1,-1,1,1,-19,0,0,-1
16:43:39.381594,-1,-3,-3,-2,5,1,0,0
16:43:39.395584,0,-1,0,0,0,-1,-2,0
16:43:39.396584,-1,-3,-2,-14,-25,-1,3,2
16:43:39.417570,1,-1,-3,16,31,-1,2,0
16:43:39.418570,1,-1,-1,24,42,0,1,2
16:43:39.440556,-7,2,-1,5,18,6,-1,-5
16:43:39.441556,-2,-1,0,0,-14,-17,-5,-3
16:43:39.455547,2,1,-2,-4,-3,-2,0,0
16:43:39.456546,-1,-3,2,-1,-2,-1,-1,-4
16:43:39.478532,-2,-2,-1,-5,-9,-1,0,-3
16:43:39.478532,-2,3,3,4,7,-2,-1,-7
16:43:39.500518,2,-3,-5,-4,-2,0,0,2
16:43:39.501518,-2,-2,-1,20,43,3,1,0
16:43:39.515510,-1,-1,-1,-8,-11,-3,-5,1
16:43:39.523506,-3,-1,0,6,10,-2,-6,1
16:43:39.538496,-3,0,0,1,-5,3,0,-1
16:43:39.538496,-1,-3,-3,-15,-3,0,-1,1
16:43:39.560485,0,2,1,-2,-15,-5,0,2
16:43:39.561482,-2,0,-2,-1,-2,-2,-1,-2
16:43:39.575472,1,-1,2,15,26,2,1,0
16:43:39.576473,1,-7,-5,11,62,0,-2,-5
16:43:39.598458,-1,2,-1,-11,-3,-3,0,-2
16:43:39.598458,-4,1,0,0,3,-4,0,-1
16:43:39.621444,-1,1,-2,10,12,1,1,-1
16:43:39.621444,-3,0,-3,-7,-21,-3,-2,4
16:43:39.636435,-4,1,0,21,10,-3,-1,-5
16:43:39.636435,-2,-4,-5,-1,-2,0,-2,-1
16:43:39.658424,0,2,1,-10,-14,-2,-1,0
16:43:39.659422,-4,-2,1,1,11,-3,-4,-4
16:43:39.681407,0,0,-3,-6,-6,-1,0,4
16:43:39.681407,-3,-1,-2,7,16,-4,1,1
16:43:39.696398,-4,-2,-2,-6,-12,-5,-2,-4
16:43:39.703396,-1,-3,-4,-5,-90,-7,1,2
16:43:39.718387,-5,-1,-1,3,37,10,-4,-4
16:43:39.719384,0,-1,-2,-2,4,0,1,0
16:43:39.741370,-1,4,-2,0,-3,4,1,1
16:43:39.741370,-6,-3,1,16,-5,-4,-4,-3
16:43:39.756360,2,0,-1,-4,0,-1,0,-5
16:43:39.763356,16,3,2,5,2,0,2,3
16:43:39.778350,-3,-1,1,-11,-5,-3,-2,-2
16:43:39.779347,-1,-3,-1,3,5,1,3,2
16:43:39.801333,-3,-2,-1,-10,-20,-3,-1,0
16:43:39.801333,-2,-4,-3,14,11,-6,-2,-3
16:43:39.824319,-3,1,0,5,9,0,-1,-2
16:43:39.824319,1,-5,0,-7,1,0,0,-1
16:43:39.838312,-2,-2,-4,-5,-5,-4,-4,-1
16:43:39.839310,-5,-1,-2,-4,-4,-2,-1,-2
16:43:39.861296,5,-2,0,-1,-4,-1,-3,3
16:43:39.861296,-1,-5,-4,-1,1,-2,-4,0
16:43:39.876288,-2,-3,-1,-7,-3,-3,-4,-6
16:43:39.883284,-1,-1,-1,3,-5,-4,-3,-1
16:43:39.898273,-3,-4,-4,-2,11,-1,-1,3
16:43:39.899272,-3,-3,1,-3,-1,0,-2,-5
16:43:39.920261,-1,1,-3,-8,-17,3,-3,0
16:43:39.921258,-4,0,-2,1,11,-4,0,-1
16:43:39.936248,0,-3,-1,0,26,-2,-1,-1
16:43:39.943244,-2,0,0,-2,4,-2,-1,-1
16:43:39.958234,-3,1,-1,-4,-2,1,2,-1
16:43:39.958234,-1,1,0,0,0,0,0,-1
16:43:39.981230,7,4,0,6,3,-3,-1,1
16:43:39.981230,0,-3,-3,-4,-4,-4,-4,-4
16:43:39.996212,-2,0,1,-8,7,-2,0,0
16:43:40.003206,0,-3,-1,-19,-8,-1,0,-1
16:43:40.018199,-1,-1,0,-9,-27,-1,1,0
16:43:40.018199,1,1,-2,-3,2,-3,-2,-1
16:43:40.040186,1,2,-1,-16,-30,-3,0,0
16:43:40.041183,-2,0,0,1,6,-4,-3,-2
16:43:40.056174,0,0,2,0,1,-1,-2,1
16:43:40.063171,-2,-1,-4,-5,-17,-1,4,-3
16:43:40.078162,0,-1,1,15,10,-1,4,4
16:43:40.079169,10,5,5,24,34,6,3,0
16:43:40.108143,-3,-4,-2,-4,9,1,2,-2
16:43:40.109142,2,1,-3,-2,-1,-2,2,1
16:43:40.116138,-2,1,0,0,-4,-4,0,0
16:43:40.123134,3,0,1,6,-4,-1,-5,-5
16:43:40.138126,-1,0,-3,-18,-21,1,-1,-1
16:43:40.139125,-2,-5,-2,-1,-41,-19,-4,1
16:43:40.161109,0,1,2,4,20,4,-1,-3
16:43:40.161109,-3,0,-1,-6,-10,-1,0,-3
16:43:40.176102,3,2,2,8,12,-1,-1,3
16:43:40.184095,-2,1,1,10,22,-3,0,-3
16:43:40.199086,1,3,1,-4,-15,2,0,1
16:43:40.199086,-1,-3,2,-7,7,1,0,0
16:43:40.221075,-1,1,2,6,6,-6,-5,-6
16:43:40.222075,-4,-2,-1,0,4,3,1,-2
16:43:40.236066,3,1,3,4,2,-3,1,0
16:43:40.243061,-1,0,4,-1,-2,-4,-1,-2
16:43:40.258052,1,-1,-1,9,10,4,-3,-1
16:43:40.259049,6,-1,-3,-6,-18,-2,-4,-5
16:43:40.289030,-1,-5,0,2,5,0,-4,-3
16:43:40.289030,-3,-1,1,11,10,-3,4,0
16:43:40.303024,2,1,0,-4,12,1,-1,-2
16:43:40.304022,-2,-1,-3,-2,0,-3,-2,-3
16:43:40.318015,-2,-1,0,-4,-4,-5,-1,-2
16:43:40.319013,-3,0,0,-1,10,0,-1,-1
16:43:40.340999,1,-1,0,0,-1,0,0,2
16:43:40.342000,0,2,-1,-2,-2,-3,1,2
16:43:40.363984,-3,-4,-4,-1,3,3,1,-4
16:43:40.363984,2,2,2,0,-1,-1,2,3
16:43:40.378976,-3,-5,-2,-5,-5,-1,-2,-3
16:43:40.378976,-2,-5,-4,0,0,-1,-2,-2
16:43:40.400964,4,-1,-1,1,-6,-1,0,-1
16:43:40.401968,0,-4,-2,1,-3,-3,1,-5
16:43:40.423946,-1,1,0,-1,-18,1,-4,-1
16:43:40.423946,-4,-3,-3,9,31,3,-2,-3
16:43:40.438937,-7,-6,-3,20,-17,-2,-4,-3
16:43:40.438937,0,0,0,-4,11,4,-2,-4
16:43:40.460926,2,0,0,-6,-8,-2,1,2
16:43:40.461924,-5,-2,1,1,-6,-4,-3,-4
16:43:40.483910,-1,0,0,0,-3,-1,1,0
16:43:40.483910,-2,0,2,1,1,-1,-3,-3
16:43:40.497903,-2,0,-4,-2,1,0,-1,-1
16:43:40.498902,-4,-2,1,-3,-8,-2,-3,-3
16:43:40.520889,0,1,-3,-1,1,1,1,3
16:43:40.521886,-1,-3,0,1,-2,-3,1,0
16:43:40.543873,-4,-3,-1,-3,-3,-2,-1,-3
16:43:40.543873,-3,-5,-2,13,32,0,-2,0
16:43:40.558863,-1,-1,-2,17,-16,-7,-3,-2
16:43:40.558863,-5,-7,-3,0,11,3,-1,-3
16:43:40.580851,-2,1,2,2,6,-4,-1,0
16:43:40.581851,1,-1,-3,-18,-39,-5,-1,0
16:43:40.603836,2,-1,1,4,-4,-7,-3,-3
16:43:40.603836,-2,-1,1,-2,7,0,-1,0
16:43:40.618826,-6,-2,1,15,32,4,4,-2
16:43:40.633819,-1,1,-3,-7,-1,-5,-4,-2
16:43:40.640815,-9,-1,0,1,8,0,0,0
16:43:40.641815,0,0,-1,-3,-2,-1,-2,-2
16:43:40.663797,0,-2,1,1,-4,-1,1,0
16:43:40.663797,-3,0,1,3,-6,-1,1,0
16:43:40.678788,0,-2,-3,0,-3,0,-1,-3
16:43:40.685787,-1,-1,0,-1,-7,-2,-3,2
16:43:40.700778,-3,0,1,7,40,0,-4,-4
16:43:40.701776,1,0,1,-9,-11,-1,-1,2
16:43:40.723761,-5,0,-1,-1,-17,5,-5,-7
16:43:40.723761,0,-1,0,2,9,-1,1,1
16:43:40.738755,0,-1,-2,-10,-11,1,1,2
16:43:40.745748,1,3,0,1,1,-1,0,-1
16:43:40.760740,9,3,3,-6,-1,-3,-3,-1
16:43:40.761738,3,-1,1,-4,-5,1,-3,-5
16:43:40.783726,-5,-3,1,-2,-6,0,0,-1
16:43:40.783726,0,0,1,4,11,2,4,0
16:43:40.798716,0,-4,-2,-5,12,0,0,3
16:43:40.805711,0,-3,-1,16,38,1,1,1
16:43:40.820703,-1,1,-2,-4,-26,-4,-1,0
16:43:40.821700,0,0,1,0,1,-6,0,-1
16:43:40.843689,0,0,2,0,0,-2,-2,-1
16:43:40.843689,-2,-1,-2,0,-7,-4,-1,-1
16:43:40.873671,-4,1,0,0,-3,-2,1,-3
16:43:40.873671,0,-4,-1,-1,-1,1,-2,-1
16:43:40.880666,3,1,-2,11,2,-1,2,-2
16:43:40.881665,-1,1,2,-5,-11,-2,-1,-4
16:43:40.903652,-6,-1,-2,-14,-14,1,3,0
16:43:40.904650,-1,1,0,6,13,0,-4,2
16:43:40.918642,-2,-3,-2,11,17,3,-3,-1
16:43:40.925637,-4,0,1,1,7,-1,2,1
16:43:40.940629,2,0,-5,6,0,-1,0,3
16:43:40.941626,-2,1,0,-5,-4,-1,0,-2
16:43:40.963612,-2,2,4,-1,6,2,0,-2
16:43:40.963612,-1,1,0,-1,0,2,0,-1
16:43:40.978608,-1,-2,-1,2,-1,-4,1,-3
16:43:40.986599,-1,-3,-2,-3,1,0,1,0
16:43:41.000592,-3,-1,2,17,9,-1,-1,-3
16:43:41.001588,-2,-2,-2,9,18,-2,-1,-1
16:43:41.023578,0,0,3,-5,2,-1,1,2
16:43:41.024577,-2,-2,1,-1,7,-2,-2,-5
16:43:41.045561,-3,-4,1,-15,-23,-2,-3,-4
16:43:41.046560,0,-2,3,4,9,-1,0,0
16:43:41.068550,0,-3,-2,0,-1,1,3,0
16:43:41.069547,-1,0,0,6,-8,-1,-2,1
16:43:41.083540,-4,-3,0,-3,4,2,0,3
16:43:41.084540,1,-4,0,3,-3,-2,-1,-2
16:43:41.098530,-5,-3,-1,-3,-6,1,1,-1
16:43:41.105533,1,0,0,-2,9,3,1,4
16:43:41.120517,3,2,3,7,-22,-9,0,-4
16:43:41.121516,0,-1,0,6,24,2,-2,1
