timestamp,emg1,emg2,emg3,emg4,emg5,emg6,emg7,emg8
15:37:12.822453,-1,1,-2,-5,-11,0,-2,-1
15:37:12.838445,-2,1,1,3,-3,0,-5,-4
15:37:12.845441,-1,-2,-2,4,-4,-2,-1,-2
15:37:12.860430,-3,-3,-3,-1,4,-1,1,0
15:37:12.860430,-2,-2,-2,-2,-4,-1,0,-1
15:37:12.874424,0,-1,-1,1,-1,-1,-1,-2
15:37:12.882415,2,1,1,-1,-3,-3,-1,0
15:37:12.897406,1,-2,-4,-4,-5,-1,-1,-1
15:37:12.904405,-3,-1,-2,-1,3,0,1,0
15:37:12.920396,0,0,0,-1,-2,-6,2,0
15:37:12.927388,1,-3,-3,-2,0,-1,-1,-2
15:37:12.935384,-3,0,1,1,2,0,1,1
15:37:12.942379,2,0,-3,-1,-2,-1,-4,-2
15:37:12.957373,-1,-1,-3,1,-4,-4,-1,-1
15:37:12.965368,-2,-4,-2,-4,-9,-4,-2,-5
15:37:12.980355,-2,-2,-1,0,4,1,0,-1
15:37:12.980355,-2,0,-2,-4,-3,0,-2,2
15:37:12.995346,3,1,1,-2,0,-2,0,1
15:37:13.002345,-2,-4,-2,0,2,-2,-4,-3
15:37:13.017332,-4,-1,-4,-4,-5,-3,-2,-3
15:37:13.032326,-3,1,0,0,1,2,-2,0
15:37:13.039320,-1,-4,1,1,5,0,-5,-1
15:37:13.040319,2,-1,-3,0,-8,-2,1,0
15:37:13.055310,-3,-2,1,1,2,-1,0,-4
15:37:13.062304,-2,-2,0,-2,-3,0,-1,0
15:37:13.077295,3,-1,-1,3,4,2,-1,0
15:37:13.085293,0,2,-2,-8,-6,-2,-2,-3
15:37:13.100282,0,1,-2,-3,-4,-6,-2,-1
15:37:13.100282,-4,-2,-2,-2,-1,0,-1,0
15:37:13.115273,1,-1,1,-2,-1,-1,1,-1
15:37:13.122270,0,-1,-3,1,-3,-2,0,-1
15:37:13.137258,0,-1,-1,-3,-5,-1,-3,-1
15:37:13.145256,0,2,-4,-3,-2,-3,-2,0
15:37:13.160244,1,-3,0,3,2,2,-2,-2
15:37:13.160244,-2,0,1,-3,-1,-3,1,-2
15:37:13.175235,1,0,1,-3,1,1,0,-2
15:37:13.182231,1,-2,0,0,5,1,-1,0
15:37:13.197221,-2,-3,-1,4,0,4,5,1
15:37:13.205219,-1,-3,-3,-2,0,-2,-1,0
15:37:13.220206,-2,-2,0,0,-2,-1,-3,-3
15:37:13.220206,0,-1,0,0,-7,-6,1,-1
15:37:13.235198,0,-1,-1,-2,7,1,-3,0
15:37:13.242194,-3,-1,0,-2,-8,0,-1,-3
15:37:13.257185,-1,-3,-2,-2,-1,0,-1,-1
15:37:13.272174,3,7,-1,4,4,4,4,2
15:37:13.280170,-1,-1,-1,2,-2,-2,-1,-5
15:37:13.280170,0,-4,0,2,2,-1,-2,-1
15:37:13.295160,0,-2,0,0,0,-1,0,2
15:37:13.302157,0,-2,-2,1,0,-3,-1,-1
15:37:13.317148,-1,0,-2,-1,-1,-2,1,1
15:37:13.325145,-4,-1,-5,-3,-6,-1,-2,-1
15:37:13.347128,0,-1,1,-3,3,3,-1,-3
15:37:13.355125,1,1,-4,-3,-4,-4,1,2
15:37:13.355125,-1,0,0,-3,-4,-2,-3,3
15:37:13.362118,2,-2,-3,-4,-5,-1,2,1
15:37:13.385107,-5,-1,0,-1,-4,1,-1,1
15:37:13.385107,-2,0,-2,0,-4,-3,0,-4
15:37:13.400095,-2,0,-2,1,-7,-3,-1,-1
15:37:13.400095,0,0,-1,2,2,0,-2,-2
15:37:13.415088,-3,1,-2,-6,-1,1,0,-2
15:37:13.422084,0,1,0,2,0,0,-1,2
15:37:13.437074,-4,-3,1,-1,-2,1,-1,-5
15:37:13.445069,2,-3,0,-3,0,1,-2,0
15:37:13.467056,-3,0,0,0,2,4,-3,-2
15:37:13.468056,-1,-2,-1,-2,-12,-1,-1,-1
15:37:13.482047,-1,-1,0,-1,-1,0,-4,-2
15:37:13.483046,2,0,-1,-3,-1,0,-1,2
15:37:13.498035,-1,0,3,2,4,0,0,0
15:37:13.505033,-2,2,-2,-8,-4,-2,-5,-3
15:37:13.520024,0,1,-2,-3,-1,-4,-2,-1
15:37:13.527016,-4,-2,1,0,2,0,-1,1
15:37:13.542010,-3,-2,-2,-1,0,0,0,-1
15:37:13.543007,1,0,1,0,-2,-2,0,0
15:37:13.557000,-1,0,1,2,5,1,-3,3
15:37:13.564996,1,-1,0,3,2,-1,2,-1
15:37:13.579986,-2,3,-1,-3,-6,-2,-1,-1
15:37:13.586985,-4,-2,-2,-4,-2,-2,-3,-1
15:37:13.601971,-1,2,0,-2,0,-2,0,0
15:37:13.602972,-1,-2,-1,1,-8,-1,2,-2
15:37:13.617963,-3,-2,-3,3,-5,-4,-1,-5
15:37:13.624958,1,0,1,0,0,-2,-1,1
15:37:13.639949,1,-1,1,-4,0,-4,-2,-2
15:37:13.647941,-3,-1,0,2,1,1,3,1
15:37:13.661933,0,1,3,1,0,-2,-3,-3
15:37:13.662932,0,-2,-1,0,-1,-1,2,1
15:37:13.677924,1,-1,-1,2,-1,2,-3,-3
15:37:13.684921,-2,0,0,0,-5,-2,-3,0
15:37:13.699912,0,1,-1,-6,-5,0,-1,-1
15:37:13.706907,1,-1,-2,-2,-5,-4,-3,2
15:37:13.721895,-3,-1,-5,-9,3,2,-2,-3
15:37:13.722896,-1,1,-2,1,-3,-1,-1,-2
15:37:13.737888,-3,0,0,-1,1,4,0,4
15:37:13.744883,-2,1,0,-3,-2,-3,1,-2
15:37:13.767867,0,-1,0,-4,-3,0,-1,-1
15:37:13.767867,3,3,0,3,4,-3,1,2
15:37:13.781861,-1,2,0,1,-2,-4,0,-1
15:37:13.782860,-3,-4,-4,-5,-1,-2,-1,-4
15:37:13.797848,-2,-1,-3,-1,-7,-6,0,1
15:37:13.804844,-2,-1,-1,-2,1,5,-2,-1
15:37:13.819835,-1,-1,-1,6,-3,-1,-1,-1
15:37:13.827833,0,-1,-2,-1,0,0,-1,-1
15:37:13.841820,-4,-2,-1,-1,-3,0,-1,-3
15:37:13.842821,-2,0,-2,0,0,-2,-1,-1
15:37:13.857811,0,0,2,0,1,0,1,1
15:37:13.864807,-2,-1,0,-2,-5,2,1,-3
15:37:13.879797,-1,-2,-2,-1,-5,-5,-3,-2
15:37:13.887792,0,-2,-1,2,4,-1,2,0
15:37:13.902785,0,-1,-1,-1,-10,-4,-1,2
15:37:13.902785,0,-1,-2,-3,-1,1,-1,0
15:37:13.917775,3,-1,1,0,-4,-8,2,1
15:37:13.924769,0,-2,-2,-1,-2,-1,-2,2
15:37:13.939761,-4,-1,-1,-3,1,2,3,1
15:37:13.947755,1,-1,-2,-3,-2,0,-4,1
15:37:13.962746,0,-1,-1,-3,-5,-2,-1,1
15:37:13.962746,-3,1,-1,0,-1,4,0,-4
15:37:13.977737,0,-1,2,-3,0,-2,-1,2
15:37:13.984735,1,1,-3,-3,4,4,-1,1
15:37:13.999724,1,-1,0,-1,1,-1,-3,1
15:37:14.007721,1,0,-2,6,1,-2,-2,-3
15:37:14.022708,1,-3,-2,14,9,-3,0,-2
15:37:14.022708,0,0,-2,4,4,5,1,1
15:37:14.037700,-1,2,2,6,-25,-11,-1,-2
15:37:14.044697,-1,0,-3,4,28,6,-3,-2
15:37:14.059687,-5,-1,2,-2,0,1,0,0
15:37:14.067683,-2,-2,-4,-1,1,3,0,3
15:37:14.082671,-1,1,0,0,3,-2,0,-3
15:37:14.082671,0,2,-1,0,0,-1,-1,-1
15:37:14.104658,1,-2,1,-3,-1,-1,1,-2
15:37:14.105658,-3,-1,0,2,2,-4,0,-2
15:37:14.119651,-3,-2,-3,0,-6,-2,-1,-2
15:37:14.127644,-3,-1,-4,4,9,5,1,-1
15:37:14.149633,0,-1,0,-10,-1,0,-2,-1
15:37:14.150632,3,0,1,-20,-15,-4,-3,-3
15:37:14.157628,-4,0,-1,8,11,2,1,-4
15:37:14.165624,2,-1,-3,6,1,1,0,-1
15:37:14.179613,2,0,1,6,7,0,-3,0
15:37:14.187607,2,-1,0,2,2,2,2,2
15:37:14.202603,2,-1,0,-22,-8,-1,1,4
15:37:14.202603,-3,-3,-1,0,0,-5,-4,-1
15:37:14.217591,-1,0,1,-4,-9,1,0,-3
15:37:14.224588,0,0,-1,-1,5,2,-2,2
15:37:14.240577,0,-3,-2,-3,-5,-1,0,0
15:37:14.247569,0,-3,-1,-2,-2,-4,-3,-1
15:37:14.262561,1,1,-1,2,6,-2,-1,-1
15:37:14.263559,0,-3,-3,-6,7,1,2,4
15:37:14.277554,0,-3,-3,7,6,-5,-1,-1
15:37:14.284549,0,-2,-2,-5,-1,-2,-6,-3
15:37:14.299546,-1,2,2,3,4,2,-1,1
15:37:14.307532,2,-1,-1,1,8,7,1,0
15:37:14.322523,-4,0,-1,-1,-1,-1,-1,-1
15:37:14.323525,0,-4,-1,-4,2,-1,-5,-4
15:37:14.337516,0,-2,0,-3,-2,-2,-4,-2
15:37:14.345508,0,-2,0,28,4,-1,-1,-3
15:37:14.360501,-2,-2,0,3,-7,0,0,-5
15:37:14.367495,-2,-2,1,-2,-3,-3,-5,-2
15:37:14.382486,-2,0,0,33,18,3,-1,1
15:37:14.389481,-1,-1,-3,-9,-16,-3,-2,-2
15:37:14.404473,0,-1,1,5,3,2,-2,0
15:37:14.405471,0,1,1,-1,0,-3,-2,1
15:37:14.420465,-2,-1,-1,0,2,1,-1,-2
15:37:14.427460,0,-3,-1,-2,-11,-4,-2,1
15:37:14.442451,2,-1,1,5,9,-1,-1,-4
15:37:14.449446,-4,-3,-3,-5,0,-4,-5,-4
15:37:14.465434,1,2,1,30,2,-2,-3,0
15:37:14.465434,-4,3,-3,-16,-17,-3,-3,-2
15:37:14.480428,-2,-3,-1,-9,-6,-3,0,-4
15:37:14.495419,-6,-1,0,6,-1,0,-2,-3
15:37:14.502414,0,1,5,8,3,4,3,2
15:37:14.510407,0,-1,0,-2,-4,-1,-2,0
15:37:14.525397,-1,-2,-3,-2,3,1,-1,-3
15:37:14.525397,-1,-1,2,-4,-4,-3,-1,-2
15:37:14.540394,-1,3,-3,-2,-5,0,2,0
15:37:14.547384,-2,0,-1,-1,8,-2,-3,-3
15:37:14.562377,-2,-1,-2,0,-3,-1,-1,-3
15:37:14.570370,2,1,0,13,5,1,-1,-1
15:37:14.585360,-2,1,-4,8,-5,-5,0,-3
15:37:14.585360,-1,0,1,7,-3,-1,-4,1
15:37:14.600353,-2,1,-2,1,3,-1,0,-1
15:37:14.607349,1,0,-1,-5,-3,0,-1,0
15:37:14.630335,-2,0,0,-10,-10,0,2,1
15:37:14.630335,-3,-3,-2,15,8,-1,-6,-2
15:37:14.645323,-3,0,-19,-25,-2,2,0,0
15:37:14.645323,-12,-10,0,17,8,-10,-9,-13
15:37:14.660316,1,-2,-1,-4,-4,-2,0,-1
15:37:14.667309,4,8,12,1,32,4,2,3
15:37:14.682300,4,1,11,8,7,3,5,4
15:37:14.690298,8,13,29,-25,49,12,3,3
15:37:14.705288,8,2,-2,24,-39,-11,0,6
15:37:14.705288,-9,-10,-42,-29,-59,-21,-5,-7
15:37:14.720280,-13,-10,-10,71,-36,-10,-15,-14
15:37:14.727272,-17,-29,-9,86,127,18,-8,-12
15:37:14.742265,10,7,-8,-96,127,-4,6,9
15:37:14.750265,4,8,53,0,-128,-15,0,2
15:37:14.765251,16,28,114,127,127,54,14,10
15:37:14.765251,-5,-39,-128,-118,-128,-53,0,3
15:37:14.780242,-19,6,82,127,127,44,-10,-24
15:37:14.787235,11,-17,-3,-56,-128,-4,16,21
15:37:14.802228,7,40,52,127,-110,-52,2,4
15:37:14.810222,-34,-40,-128,-128,127,-60,-46,-33
15:37:14.825213,8,-11,51,127,127,125,21,7
15:37:14.825213,41,81,127,-128,127,103,29,38
15:37:14.840205,-16,-87,-95,19,-128,-106,-15,-6
15:37:14.847200,24,51,88,-128,-128,40,23,14
15:37:14.862191,-48,-83,-128,127,127,-57,-34,-27
15:37:14.870186,29,54,75,-43,-18,44,23,16
15:37:14.885175,43,59,13,-4,-22,38,26,34
15:37:14.885175,-41,-59,-48,-3,45,3,-26,-31
15:37:14.900168,11,24,8,18,121,28,4,3
15:37:14.907160,-12,-7,-9,-52,4,-22,-7,-10
15:37:14.922151,9,19,24,-3,-74,6,5,5
15:37:14.930146,-12,-16,-35,-67,5,-13,-6,-8
15:37:14.945137,13,-14,61,127,48,35,15,19
15:37:14.946139,2,18,29,23,62,28,4,2
15:37:14.960130,18,10,-19,-99,-14,-17,9,16
15:37:14.967123,4,14,6,-1,127,4,-5,-4
15:37:14.982116,-5,-16,-21,-73,-128,-48,-1,-3
15:37:14.990112,-12,-30,36,127,-23,25,7,3
15:37:15.012097,21,11,35,127,127,26,21,17
15:37:15.013097,21,67,22,-128,-128,-90,-4,5
15:37:15.020093,-26,-36,57,127,-92,-13,-16,-11
15:37:15.027089,-62,-128,-70,58,-33,14,2,-8
15:37:15.043079,69,102,127,127,127,110,19,34
15:37:15.050075,26,20,-8,-20,-40,-31,4,10
15:37:15.065065,20,23,-51,-128,9,44,7,9
15:37:15.066066,-16,-22,-28,-72,16,24,-6,-8
15:37:15.080053,14,30,76,127,12,33,3,4
15:37:15.087052,3,-23,44,127,127,32,6,8
15:37:15.102043,30,47,43,127,-128,-61,18,23
15:37:15.110035,-35,-82,-69,-50,-128,29,-16,-19
15:37:15.132021,7,-6,-6,-127,127,62,10,10
15:37:15.133020,15,43,59,-17,-128,-59,-8,-1
15:37:15.140016,-28,-37,-28,-19,101,35,-10,-16
15:37:15.148013,-20,-35,-35,21,37,24,0,-8
15:37:15.163005,9,11,41,74,113,-23,2,7
15:37:15.169997,5,12,-20,-128,-128,-32,-1,-1
15:37:15.184989,-6,-5,-7,-41,127,38,-1,-1
15:37:15.184989,3,-5,-16,-46,58,-14,5,3
15:37:15.199979,13,39,29,-1,-50,-33,4,3
15:37:15.206978,-3,-12,-55,-128,-128,-87,-2,2
15:37:15.222965,-3,-8,3,60,-99,0,1,2
15:37:15.229960,23,49,46,111,-31,-44,7,8
15:37:15.259941,6,15,-46,-128,-127,-24,-2,-1
15:37:15.260941,-10,-21,-59,-128,-128,-65,-9,-4
15:37:15.260941,12,19,8,-33,-128,53,1,6
15:37:15.266939,-8,-6,-36,-101,59,-26,-10,-7
15:37:15.282927,7,6,3,110,127,64,14,9
15:37:15.289923,18,56,62,-67,122,-8,-1,4
15:37:15.304914,-17,-9,-40,-71,-97,-14,-7,-14
15:37:15.304914,10,8,32,127,-84,5,7,12
15:37:15.327901,17,28,17,47,127,8,6,8
15:37:15.327901,24,69,26,25,127,86,5,5
15:37:15.342891,-4,2,4,-28,117,28,4,-1
15:37:15.349889,-2,3,-4,2,127,49,2,-1
15:37:15.364878,3,-3,8,75,127,-16,1,4
15:37:15.372874,16,25,19,-44,-128,-48,4,9
15:37:15.387863,5,6,9,19,-19,8,2,5
15:37:15.387863,13,21,-24,-113,-128,-38,2,6
15:37:15.402853,-11,-29,-51,-111,127,28,-2,-1
15:37:15.409850,6,6,-5,17,127,5,2,6
15:37:15.424842,-8,-1,8,-8,-128,6,0,-3
15:37:15.432836,9,2,-7,-8,-34,4,-1,5
15:37:15.447826,4,6,15,85,87,18,4,3
15:37:15.447826,0,10,16,4,-128,-48,-6,-2
15:37:15.462819,-4,-16,6,127,123,32,4,1
15:37:15.469811,1,2,-25,-93,-128,-2,-1,1
15:37:15.484802,8,18,22,-35,19,4,3,1
15:37:15.492797,6,11,-6,-64,-47,-19,1,2
15:37:15.507790,-14,-30,-24,-7,107,27,-2,-5
15:37:15.508790,-1,-9,-5,23,127,43,5,3
15:37:15.522781,6,13,-2,-59,-106,-22,-3,0
15:37:15.529778,1,-3,8,106,49,10,3,-3
15:37:15.545765,-15,-15,-13,-25,49,41,0,-5
15:37:15.552760,6,10,34,16,-44,-24,3,5
15:37:15.567750,1,7,2,24,51,-10,1,0
15:37:15.567750,-10,-27,-58,-109,-128,-52,-12,-6
15:37:15.582742,10,6,34,117,104,18,9,10
15:37:15.589737,7,-9,-4,22,78,31,5,7
15:37:15.604728,-13,-35,-52,-128,-128,-32,-5,-5
15:37:15.612724,-5,-5,-28,-70,-13,-20,-3,-1
15:37:15.628714,9,21,3,-128,-60,-15,1,3
15:37:15.628714,-21,-30,-25,39,4,13,-4,-9
15:37:15.642707,13,20,18,31,-73,-1,5,9
15:37:15.649702,-14,-30,-52,-10,84,-5,-5,-3
15:37:15.665690,-12,-20,-60,-50,-8,-7,-2,-3
15:37:15.672686,3,18,22,-19,-53,-43,-4,-1
15:37:15.687676,-1,-2,-8,-29,-69,19,2,0
15:37:15.688676,-28,-40,-24,49,127,6,-3,-11
15:37:15.702668,8,8,20,-26,-58,-3,-3,2
15:37:15.710663,-5,-11,-17,-57,-69,-41,-5,-3
15:37:15.725656,-15,-23,-3,-10,-42,10,-3,-5
15:37:15.732651,15,24,26,110,127,51,9,12
15:37:15.754638,-15,-22,24,127,109,44,-5,-6
15:37:15.755635,10,18,-4,-117,-128,-38,7,8
15:37:15.762630,-1,6,15,38,-30,101,5,-1
15:37:15.769625,12,17,-2,-25,127,9,5,6
15:37:15.785616,-8,-16,-27,-81,73,7,-2,-2
15:37:15.792611,-10,-9,-19,-27,-8,-23,-6,-7
15:37:15.807605,10,16,-1,-42,8,-30,-2,5
15:37:15.807605,9,-3,-2,-23,119,24,11,9
15:37:15.822596,-2,0,-6,-33,-54,-21,-3,-3
15:37:15.830587,5,8,1,30,-44,23,2,4
15:37:15.845579,-9,-1,6,-26,-3,1,-7,-10
15:37:15.852574,-1,-5,-12,-11,-19,-9,-3,0
15:37:15.867568,6,5,7,32,42,6,3,3
15:37:15.867568,-4,-2,-3,-12,-15,5,-1,-2
15:37:15.882556,4,1,0,-3,-17,2,2,1
15:37:15.889551,0,-1,1,-3,-13,-3,0,-2
15:37:15.905543,-3,-1,-1,0,-3,1,-1,-4
15:37:15.912539,-4,-1,-3,-1,-4,-8,-3,-1
15:37:15.927529,3,3,1,-1,5,3,17,-1
15:37:15.927529,3,-3,-1,-6,-6,9,2,0
15:37:15.942520,-4,-3,1,0,2,-3,27,-12
15:37:15.949513,9,3,-2,-2,-3,-1,-11,4
15:37:15.964545,0,-1,0,0,0,11,-27,24
15:37:15.972500,-1,-1,3,-1,4,12,127,14
15:37:15.987491,-19,-5,-4,-6,-6,1,-128,-29
15:37:15.987491,-26,-12,-21,-18,-26,-62,-43,-63
15:37:16.002482,52,16,10,10,25,47,-10,-42
15:37:16.010477,-26,-27,-25,-20,-26,-62,87,-12
15:37:16.024469,-4,11,13,7,5,-32,-128,-106
15:37:16.032462,89,28,-3,-5,-8,-69,-20,105
15:37:16.047462,-46,-20,-7,6,-11,22,127,4
15:37:16.047462,127,29,33,24,61,127,-128,127
15:37:16.069439,-126,-6,-15,-15,-55,-128,127,-128
15:37:16.070440,74,34,39,42,76,127,-115,127
15:37:16.084434,-53,-25,-54,-52,-88,-94,-19,-118
15:37:16.092424,-11,9,22,17,24,36,-128,-12
15:37:16.107415,50,18,5,-14,-5,-11,-33,-21
15:37:16.107415,-53,59,26,90,33,1,-13,-59
15:37:16.129402,30,-16,21,39,79,76,-128,9
15:37:16.130403,16,24,27,87,42,57,44,-14
15:37:16.145393,1,42,-31,-69,-45,-33,-13,-22
15:37:16.152387,25,-60,-17,-83,43,23,-113,34
15:37:16.167378,37,32,-86,-128,127,54,-128,-17
15:37:16.167378,-46,63,61,-41,-128,-84,50,-56
15:37:16.182369,127,-86,-3,-128,53,42,-128,-88
15:37:16.189367,-30,16,-4,41,118,22,13,-23
15:37:16.204360,-12,10,-48,46,-128,8,14,-8
15:37:16.212350,-58,-98,-1,56,69,42,-48,-48
15:37:16.227343,-4,5,2,-21,-41,14,13,1
15:37:16.228343,100,-16,-7,-55,-49,-24,19,28
15:37:16.242333,-21,0,-1,127,127,24,-128,42
15:37:16.249333,-6,8,23,-105,-47,-11,21,-23
15:37:16.265319,-40,-35,-36,118,85,-42,-19,-71
15:37:16.272315,2,4,-11,-46,127,22,3,4
15:37:16.287304,20,-8,27,8,-20,58,57,63
15:37:16.295300,56,-10,17,22,31,8,53,31
15:37:16.309291,6,-2,-11,-19,-62,-7,3,-44
15:37:16.310291,-3,5,42,127,127,46,15,1
15:37:16.325280,10,8,0,54,127,4,25,45
15:37:16.332276,-7,-7,36,-36,-128,-45,-6,-8
15:37:16.354285,-12,-8,-21,46,127,12,-17,-18
15:37:16.355261,12,11,1,-37,-17,10,-32,17
15:37:16.369256,12,-4,-18,-16,-45,20,11,11
15:37:16.370253,16,0,2,-1,-128,-2,14,6
15:37:16.385243,-4,-3,-14,-46,52,22,-2,-10
15:37:16.392239,-18,-12,-22,60,73,-8,-9,-15
15:37:16.407231,6,2,33,-53,127,37,31,30
15:37:16.415224,7,-9,-18,3,73,-9,-3,-3
15:37:16.437211,-8,7,6,-103,-128,-41,-6,-11
15:37:16.437211,52,-2,26,71,51,37,22,29
15:37:16.445207,-4,17,15,127,28,8,2,0
15:37:16.452201,-13,-1,-4,104,100,25,59,-29
15:37:16.467194,-11,-17,-37,-90,-30,-84,-54,-22
15:37:16.475191,-3,1,2,5,90,30,10,-6
15:37:16.490182,-4,-1,10,52,48,2,-4,-2
15:37:16.490182,6,3,-50,11,24,-4,4,2
15:37:16.505169,-7,-6,19,54,67,20,35,11
15:37:16.512164,-23,0,5,-41,6,-5,-14,-15
15:37:16.527155,5,-2,-14,73,-28,-37,-29,-13
15:37:16.535150,-9,6,4,8,-115,-11,-1,-6
15:37:16.549144,3,-8,-4,14,36,6,0,-15
15:37:16.550142,2,2,4,16,-16,11,4,1
15:37:16.565132,-3,2,16,54,53,5,-11,-5
15:37:16.572127,-4,-2,-26,-21,22,-4,-3,-4
15:37:16.587118,-8,-3,7,49,-40,-12,-5,-12
15:37:16.595115,2,-4,-5,-40,-32,-15,-13,0
15:37:16.609106,-6,1,2,20,-43,-2,-3,-7
15:37:16.610105,-11,-8,-19,12,-22,-29,-23,-18
15:37:16.625094,-8,-3,0,-2,-42,1,-1,-2
15:37:16.632090,0,3,5,36,24,7,0,-1
15:37:16.647081,3,3,7,-2,52,10,1,-2
15:37:16.655076,-1,-5,-7,-127,-118,-19,-5,-2
15:37:16.670067,0,2,2,32,17,-5,3,10
15:37:16.670067,-5,-6,-1,-7,-43,-9,-8,-2
15:37:16.692054,0,-6,-5,-10,-67,-22,-2,1
15:37:16.693052,0,-1,-1,-1,1,4,-2,1
15:37:16.707045,-8,-3,-5,-5,-9,2,0,-5
15:37:16.715038,-4,2,0,2,2,-3,2,-3
15:37:16.730029,2,2,-2,69,-70,-2,4,2
15:37:16.730029,1,-3,-5,-111,-128,-20,-4,-3
15:37:16.745020,-4,-1,-1,22,30,7,3,-1
15:37:16.752015,4,2,1,9,11,14,-4,-3
15:37:16.767007,4,1,-4,5,25,15,17,13
15:37:16.775001,-8,-3,-2,0,18,-3,-9,-15
15:37:16.796989,1,-1,-1,-4,11,0,4,-3
15:37:16.797989,5,5,-1,2,2,-6,12,27
15:37:16.804984,1,-1,-4,-8,9,-3,0,4
15:37:16.811979,4,1,2,-11,38,-2,-16,8
15:37:16.826969,-2,1,1,6,12,1,-1,-4
15:37:16.834966,-2,0,-1,-40,-51,-6,0,-4
15:37:16.849955,-2,-4,0,4,-17,1,-1,-1
15:37:16.849955,-4,-4,-8,-128,-41,4,-4,-7
15:37:16.864945,-6,-9,-1,27,-44,6,2,7
15:37:16.871941,-1,3,-2,-1,23,0,-3,1
15:37:16.886933,0,-1,-2,-5,39,0,-3,2
15:37:16.894927,-1,2,-2,-7,15,-3,-4,-3
15:37:16.909918,4,-1,-2,0,-2,-2,3,6
15:37:16.909918,-1,-1,-3,-7,17,-7,-13,-2
15:37:16.924908,4,0,-2,-6,10,-1,-3,-3
15:37:16.931913,-5,-2,0,13,11,-8,-8,-9
15:37:16.946908,0,-4,-1,-3,-9,-5,-4,-3
15:37:16.954890,0,1,-4,0,33,11,3,1
15:37:16.969881,0,1,0,-15,-39,-6,4,4
15:37:16.969881,1,-2,-2,-1,-36,-1,-1,-2
15:37:16.984871,2,0,3,21,22,2,2,1
15:37:16.991870,0,0,-1,-27,-19,-8,4,3
15:37:17.006860,3,1,0,5,8,1,0,-5
15:37:17.014853,1,-2,-2,1,-8,4,2,1
15:37:17.029845,1,0,0,0,0,0,-1,0
15:37:17.029845,0,0,-3,-4,-3,1,-1,0
15:37:17.044835,1,-3,0,-7,-11,-1,-3,0
15:37:17.051832,0,0,1,5,-14,-7,0,-2
15:37:17.074815,4,-3,1,1,14,0,-10,-1
15:37:17.074815,4,0,-4,-7,-40,-5,8,4
15:37:17.089808,2,-3,1,23,7,-4,-4,0
15:37:17.089808,-2,-3,1,-8,16,-2,-4,-3
15:37:17.104797,-4,-3,0,3,-41,-8,-9,-8
15:37:17.111794,-2,1,-1,-1,-50,-2,3,3
15:37:17.126785,-3,-1,-2,-1,2,1,-4,0
15:37:17.134778,0,-2,-4,-1,-4,-2,-2,-2
15:37:17.156791,1,-1,-1,0,-7,4,2,-2
15:37:17.157764,1,0,-2,-5,2,0,-2,1
15:37:17.164760,-3,-1,1,4,0,3,5,-3
15:37:17.171757,0,-2,-4,5,-18,-2,0,1
15:37:17.186747,1,-3,1,13,-27,1,1,-3
15:37:17.194741,-3,-3,-3,-19,-23,-5,-2,-1
15:37:17.209734,-4,-4,-3,13,26,-3,-7,-7
15:37:17.209734,5,2,3,-1,6,7,10,8
15:37:17.224723,1,0,-1,-3,0,3,1,2
15:37:17.231721,2,0,-1,-2,-4,-1,-4,-1
15:37:17.247708,-2,-2,-1,-3,0,3,-7,-4
15:37:17.254704,-2,-1,0,1,4,-2,-2,-1
15:37:17.269695,2,-3,-1,2,-1,-2,1,-1
15:37:17.277690,2,1,-1,-3,-1,1,1,-2
15:37:17.291684,-2,1,2,26,46,4,-4,-2
15:37:17.292680,-2,-5,-3,10,16,6,-7,-3
15:37:17.306675,-5,-2,-5,-4,1,-3,0,-2
15:37:17.314667,0,0,-2,-4,-3,-2,0,2
15:37:17.329657,0,-1,-2,0,-33,-4,1,-1
15:37:17.336656,0,-2,-4,-2,3,0,0,-3
15:37:17.351646,1,0,-1,1,-8,-3,-1,2
15:37:17.352643,-2,-2,-3,0,2,0,-2,-3
15:37:17.367634,2,-1,-2,-1,-7,-5,0,0
15:37:17.382624,-2,-2,0,-3,-4,-3,-2,-2
15:37:17.389620,-4,-2,-3,-2,-1,-1,-3,-3
15:37:17.397615,-4,1,2,14,22,2,-1,-1
15:37:17.411609,0,1,-1,-14,-16,-7,-1,-2
15:37:17.412608,-3,0,-3,3,11,1,-3,-6
15:37:17.427596,0,0,1,-3,-5,0,-4,-1
15:37:17.434593,1,1,-1,-3,-7,-4,-1,3
15:37:17.449583,-3,-2,-1,-1,-1,3,7,0
15:37:17.464574,2,-1,2,1,3,3,0,-1
15:37:17.471571,1,-2,-2,-1,2,-4,3,-3
15:37:17.472568,0,-1,-3,-3,-3,-1,0,-3
15:37:17.487561,-2,-2,-1,-3,-2,-2,0,-1
15:37:17.494559,0,-4,-1,-3,1,-3,-4,1
15:37:17.509547,-2,-1,-3,0,3,-2,0,2
15:37:17.517541,-7,0,3,59,27,0,-3,-3
15:37:17.532532,-7,-6,-8,5,6,1,-6,-9
15:37:17.532532,2,0,-1,-1,-3,-1,0,2
15:37:17.547525,-4,-2,0,1,-3,1,-3,-4
15:37:17.554521,-2,0,-1,3,0,1,2,-1
15:37:17.569509,-5,-2,-3,1,-1,2,-2,0
15:37:17.577506,1,-3,-2,-5,-3,-2,-2,-1
15:37:17.592496,-1,0,-3,-3,-1,-1,0,4
15:37:17.592496,4,2,0,1,0,-3,0,2
15:37:17.607488,0,-1,3,6,-5,-2,0,3
15:37:17.616480,-3,-3,0,-2,5,-1,1,-3
15:37:17.637469,2,-1,-1,-10,-2,1,0,-2
15:37:17.637469,-2,-1,0,3,7,-2,-2,0
15:37:17.652461,0,0,0,-1,-5,-2,-2,-1
15:37:17.653460,-2,-1,-2,-2,-8,-1,-4,-2
15:37:17.667452,-1,-2,0,-9,1,0,6,2
15:37:17.675444,0,3,-2,11,1,-5,-4,0
15:37:17.690434,0,-1,-3,4,-1,-1,-1,-3
15:37:17.697429,1,-1,3,-2,3,1,-3,3
15:37:17.712420,-1,-3,0,3,-5,0,0,0
15:37:17.712420,1,-1,0,-1,1,1,-5,-4
15:37:17.727413,0,0,0,-1,0,2,1,1
15:37:17.735410,-1,2,-1,-2,-2,-1,-7,-9
15:37:17.750399,-1,-3,-3,0,5,-2,0,1
15:37:17.757396,-1,0,0,1,-2,-3,-4,0
15:37:17.772383,-2,1,0,0,5,1,-1,-3
15:37:17.773383,-2,0,-2,-16,-19,-6,-7,1
15:37:17.787374,-2,0,-3,0,8,4,7,4
15:37:17.795371,-2,-1,-2,3,6,-1,-2,-1
15:37:17.810361,-3,1,-3,-43,-42,-7,-3,0
15:37:17.825351,-4,-3,2,12,11,0,-3,3
15:37:17.832348,3,2,-3,0,0,-1,3,1
15:37:17.833346,-2,-1,-3,0,-1,-2,-1,0
15:37:17.847339,0,-3,-2,1,-2,0,0,-2
15:37:17.855332,2,-2,-5,-3,-2,0,-1,-3
15:37:17.870326,1,-1,1,1,-14,-1,1,2
15:37:17.877319,-5,-6,-3,-3,2,-2,-4,-5
15:37:17.892312,4,2,2,-10,-13,1,2,1
15:37:17.893309,-1,0,0,8,7,-3,2,1
15:37:17.907302,-1,0,-2,-6,-5,-7,-13,1
15:37:17.915296,-3,-3,0,-5,-12,-3,-1,-4
15:37:17.930287,0,-2,1,0,-5,-1,-4,0
15:37:17.937281,0,0,-1,-2,2,0,2,-1
15:37:17.952273,-3,0,0,-1,-3,1,-1,0
15:37:17.953277,1,-2,3,1,1,-3,-1,0
15:37:17.967265,-4,-2,-1,0,3,2,1,-5
15:37:17.975258,-3,2,3,1,-15,0,0,0
15:37:17.990254,-2,1,-4,-1,0,-5,-2,-5
15:37:17.997246,2,-5,-3,-2,9,2,1,-2
15:37:18.013234,1,-1,0,-6,-4,-5,-2,-7
15:37:18.013234,1,0,-1,3,-3,-1,3,3
15:37:18.028225,-5,-1,0,-24,-4,1,-2,-2
15:37:18.035222,-4,-5,-1,3,0,0,-2,-5
15:37:18.050213,0,-3,-1,-3,-2,-1,1,5
15:37:18.057209,1,-1,1,2,3,1,0,0
15:37:18.072198,-4,0,-1,4,3,2,-1,-2
15:37:18.073200,-1,-2,-1,2,0,-6,-2,-2
15:37:18.087190,5,2,0,-10,-7,4,1,3
15:37:18.102181,-3,-1,-2,5,3,-4,-1,0
15:37:18.110174,-1,-2,-1,1,-1,-1,-2,1
15:37:18.117169,-4,0,-4,-6,-6,-3,-1,-1
15:37:18.132162,5,2,2,9,3,4,2,2
15:37:18.133161,-1,1,-3,-2,-5,-4,0,3
15:37:18.147152,-3,-3,1,5,4,-3,-1,-2
15:37:18.155152,-1,-4,-4,-3,-1,0,-3,-3
15:37:18.170139,2,1,3,-2,-3,-3,10,2
15:37:18.177132,-3,-3,-1,-2,-1,1,-6,-5
15:37:18.193122,-2,-1,-3,-5,-6,0,1,1
15:37:18.200120,-1,1,1,4,5,-2,0,-4
15:37:18.215110,-5,-1,-2,-1,4,-1,1,2
15:37:18.215110,-1,0,-1,1,-12,-1,-2,1
15:37:18.230102,0,1,0,0,4,0,-6,-4
15:37:18.237097,2,2,1,28,16,2,0,-3
15:37:18.260082,-3,-2,-6,-60,-52,-5,-1,-3
15:37:18.260082,-2,0,1,23,27,1,-6,-7
15:37:18.275078,0,3,-3,-11,-3,2,2,2
15:37:18.275078,1,0,3,5,8,5,2,-2
15:37:18.297060,0,-1,1,-22,-1,-4,-2,-2
15:37:18.298059,-2,1,1,8,3,-3,1,3
15:37:18.312050,1,1,-3,-33,-9,-3,2,1
15:37:18.320046,-2,0,-2,4,12,-2,-4,-4
15:37:18.335036,-2,1,0,0,-1,1,12,1
15:37:18.336035,-1,0,-1,-2,-2,-3,-7,-3
15:37:18.350025,0,0,0,0,-1,2,1,0
15:37:18.357023,-4,-4,-1,-4,-8,-4,-3,-5
15:37:18.380007,-4,1,1,8,-6,-3,2,-1
15:37:18.380007,1,-3,-1,-5,0,1,-4,-1
15:37:18.394999,-1,-4,-2,-1,-3,-1,-7,-3
15:37:18.394999,-3,-3,0,-2,-8,1,-2,0
15:37:18.409988,3,-2,-1,0,4,2,0,1
15:37:18.416984,-1,-1,-1,4,4,-1,-4,-2
15:37:18.431973,-2,-1,-3,-8,0,-2,-1,-3
15:37:18.439969,3,1,-2,-20,-5,0,0,4
15:37:18.454960,0,2,1,6,0,1,0,3
15:37:18.455961,0,0,2,-18,1,0,0,-3
15:37:18.469951,-1,1,-1,2,-1,2,-4,-1
15:37:18.477946,4,0,-1,0,-1,3,-3,2
15:37:18.492940,0,3,1,-2,-5,-4,-1,1
15:37:18.499934,-1,-1,-1,-2,0,-1,1,-1
15:37:18.514925,-3,-4,-3,-17,-12,-1,0,-5
15:37:18.514925,-1,-1,-1,6,-6,0,0,-1
15:37:18.529915,-1,-2,-3,-1,8,8,2,-1
15:37:18.537909,0,0,-1,2,-1,-2,-2,-2
15:37:18.552900,-3,-5,1,0,4,-7,-2,-2
15:37:18.559898,-1,-1,0,1,-3,-2,-1,-2
15:37:18.574889,1,-1,2,1,0,-1,0,3
15:37:18.575885,-2,2,-2,-11,-3,-3,0,-1
15:37:18.589879,-2,-3,-2,5,0,-5,-3,-2
15:37:18.597872,0,0,-3,3,-3,-2,2,1
15:37:18.612865,-2,-1,-1,-3,-3,-1,-1,2
15:37:18.619861,-4,-2,-6,5,1,-2,-4,-4
15:37:18.634848,-1,-4,-1,7,-7,-1,2,1
15:37:18.635851,-3,2,4,-17,-19,-2,-4,-2
15:37:18.649842,-1,-3,0,1,8,-3,-1,1
15:37:18.656837,0,-1,1,0,-4,-2,1,0
15:37:18.672824,-2,-2,0,-3,-2,-3,0,-1
15:37:18.679822,2,0,0,1,-3,1,3,-1
15:37:18.694813,-2,0,-1,-5,-1,-2,-4,-1
15:37:18.695810,-3,0,0,10,6,-4,-4,-4
15:37:18.709802,-1,2,-3,-26,-18,-1,2,-1
15:37:18.717802,0,0,-1,0,3,-2,0,1
15:37:18.732791,-2,-1,0,5,-9,-3,-1,-2
15:37:18.739786,-1,-1,1,1,-1,-3,-3,2
15:37:18.754775,-1,-2,0,-2,2,-1,0,0
15:37:18.762772,-1,2,-2,-2,-7,1,1,-3
15:37:18.769765,0,2,-1,-1,-2,0,-3,0
15:37:18.777761,-3,-1,-1,0,2,1,-3,-3
15:37:18.792751,1,-1,-2,1,0,-5,0,-1
15:37:18.799749,-3,0,0,0,-1,-3,-2,-1
15:37:18.814740,-2,-1,-1,-3,-7,0,-2,-3
15:37:18.815737,-3,1,-2,-1,0,0,-1,1
15:37:18.829730,-3,-2,-2,-5,-7,-1,-3,-5
15:37:18.837723,1,1,0,3,7,2,-3,2
15:37:18.852714,0,-3,-1,-28,-17,-3,-1,-2
15:37:18.859712,-2,-3,1,-3,0,-4,-4,-6
15:37:18.874702,0,1,0,1,0,0,1,1
15:37:18.875702,-2,-2,0,2,0,-1,-2,1
15:37:18.889693,-3,-3,-2,-4,-5,-1,-2,-2
15:37:18.897689,2,-2,0,-2,-3,0,-3,1
15:37:18.912676,-1,-1,-1,1,-6,-3,-5,-6
15:37:18.927668,0,1,-1,-5,-8,3,2,-1
15:37:18.934665,-2,0,-2,0,3,-1,0,2
15:37:18.935662,-2,0,-1,1,-1,-3,-1,-3
15:37:18.949656,0,-1,-3,-3,-5,0,0,-2
15:37:18.957651,-2,-3,-2,-3,5,1,0,-2
15:37:18.972642,-1,-3,-2,-30,-12,5,0,0
15:37:18.979635,-1,-3,-1,4,-1,-3,-1,-3
15:37:18.994626,1,-1,2,0,-5,-3,-1,-1
15:37:19.002623,-3,0,-1,1,1,-2,1,-3
15:37:19.010615,1,1,2,3,-2,2,-1,1
15:37:19.017614,0,1,-5,-2,4,-4,0,-1
15:37:19.032605,-1,-1,2,9,9,-4,-3,-4
15:37:19.039599,0,-2,-2,-2,-3,0,-1,2
15:37:19.054590,1,2,-2,-5,0,-1,-6,0
15:37:19.055590,-7,-4,-5,-5,-7,-3,-3,-7
15:37:19.069580,0,3,0,-1,0,1,0,0
15:37:19.077575,0,-1,1,-2,2,2,-2,-2
15:37:19.099561,-1,-1,-4,-2,-8,-2,-1,0
15:37:19.107558,2,2,-1,-12,-5,-5,-5,1
15:37:19.115552,-3,-3,1,-1,4,2,0,-4
15:37:19.122546,2,0,0,9,11,0,0,-1
15:37:19.129544,-2,-6,-1,-6,1,1,-5,0
15:37:19.137537,0,0,2,0,-2,0,1,0
15:37:19.152528,-4,1,-1,-2,-6,-2,1,-3
15:37:19.161524,-3,1,0,-1,1,-1,-4,0
15:37:19.175516,0,1,-2,-1,2,5,-2,-1
15:37:19.182512,0,0,0,2,-17,-6,-1,0
15:37:19.197500,1,-2,-4,-9,-2,-1,0,1
15:37:19.197500,2,1,2,2,11,2,-2,2
15:37:19.212490,0,-1,0,20,-1,0,-1,-1
15:37:19.220489,0,-4,1,-1,1,-1,-4,-1
15:37:19.235479,2,0,-2,3,8,0,3,0
15:37:19.242474,-3,-3,0,-2,-1,-2,-3,-5
15:37:19.257463,-1,-4,-2,-3,-6,-4,0,-2
15:37:19.258462,-2,-4,-2,-3,-2,-3,-1,-3
15:37:19.272453,0,0,4,1,4,3,1,2
15:37:19.279449,3,1,0,2,-12,-7,-3,-1
15:37:19.295442,-1,-1,-1,0,1,3,-2,-2
15:37:19.302437,-1,0,1,7,-5,0,-2,-1
15:37:19.317425,-6,-4,-3,-2,6,-3,-3,-3
15:37:19.318427,2,2,-2,-9,-10,0,3,0
15:37:19.332419,-1,-1,-1,-19,-18,-6,-1,-4
15:37:19.340417,-3,-4,3,6,8,6,1,-1
15:37:19.355405,-1,-2,3,0,0,0,2,0
15:37:19.362398,1,-1,0,0,-3,-3,-3,0
15:37:19.377389,-1,0,-3,-2,-2,3,-1,-1
15:37:19.378389,0,-1,0,-3,-1,-1,0,-1
15:37:19.407372,2,1,1,2,4,2,4,2
15:37:19.408370,-5,-1,-3,2,-3,-3,-3,0
15:37:19.415366,0,0,-2,2,2,0,0,-2
15:37:19.422363,-3,-1,1,-5,-1,-3,-5,-1
15:37:19.437354,-2,1,1,-1,-4,-1,1,-3
15:37:19.438353,0,0,-3,-4,0,-4,0,-3
15:37:19.452343,0,-1,0,-7,-5,-8,-1,2
15:37:19.460337,-1,-3,0,0,6,-2,-2,-2
15:37:19.475327,-1,2,3,0,0,3,2,0
15:37:19.482323,1,-1,0,19,4,-3,0,0
15:37:19.498314,0,-3,-2,4,5,3,3,1
15:37:19.498314,-3,-3,-1,1,3,-1,-3,0
15:37:19.512307,-2,-1,0,1,2,-2,2,1
15:37:19.520303,-4,-1,-1,-3,-5,-3,-3,0
15:37:19.535293,1,-1,2,0,0,-2,-1,-4
15:37:19.542288,-2,0,3,-6,-1,-2,-1,1
15:37:19.557279,-5,0,-4,-3,-4,0,-3,-3
15:37:19.558279,1,-2,1,-4,-18,-9,-1,-1
15:37:19.572270,-2,2,0,3,9,-4,0,2
15:37:19.580264,-1,-1,-1,-7,-1,1,-2,-3
15:37:19.595254,6,1,0,0,-7,0,3,4
15:37:19.602250,-1,-5,-3,-23,-16,-4,-4,0
15:37:19.617242,-3,1,-2,6,7,0,-2,0
15:37:19.618239,-1,-2,0,3,-1,-1,-1,-1
15:37:19.632232,-2,1,0,-2,-2,-3,-1,-3
15:37:19.640228,3,-3,2,-2,-1,-3,-1,0
15:37:19.662214,0,-1,0,0,5,0,-1,1
15:37:19.663213,-2,1,-3,-1,-7,-4,0,-1
15:37:19.677203,-2,1,0,0,-2,2,1,-4
15:37:19.678202,-4,-1,-2,-1,1,0,-3,-1
15:37:19.693193,-1,-2,0,1,-3,-5,-2,-1
15:37:19.700191,-1,2,-3,-4,-2,-1,1,1
15:37:19.715182,1,-2,-2,7,1,-6,-7,-3
15:37:19.722174,-3,0,-3,0,-3,0,12,8
15:37:19.737165,0,-1,-3,-4,-6,0,-15,-7
15:37:19.738171,12,2,-1,-3,-4,4,23,36
15:37:19.752158,-2,-1,1,-5,0,-2,-4,-4
15:37:19.760151,1,0,-2,0,-6,-3,-3,-3
15:37:19.775145,1,1,-2,0,1,0,-1,-2
15:37:19.783140,0,0,1,0,-3,2,0,-3
15:37:19.797127,1,-5,-3,2,-1,-1,-2,-1
15:37:19.798127,-2,-1,-2,-1,-1,-2,-1,2
15:37:19.820119,-1,0,0,-1,2,1,3,0
15:37:19.820119,-2,-1,0,3,-4,-3,-4,-3
15:37:19.835104,-2,1,-3,-2,6,1,0,-1
15:37:19.843100,-1,-2,-2,-1,-12,-4,-3,-1
15:37:19.857090,-4,-5,-2,-1,5,3,1,1
15:37:19.858090,0,1,1,7,-2,0,0,2
15:37:19.873081,0,1,1,-4,-3,-3,-2,-3
15:37:19.880076,-1,0,-2,-2,-6,-4,-11,-1
15:37:19.895068,-3,-4,-1,0,3,0,3,-2
15:37:19.903063,1,0,-2,0,-1,-5,2,3
15:37:19.917054,1,-1,-1,-4,-4,-5,-3,-3
15:37:19.932045,-3,-3,-3,-3,2,1,-2,-4
15:37:19.933046,2,-2,0,-1,-5,-3,0,-1
15:37:19.940041,1,2,-1,-2,-6,-1,-2,-2
15:37:19.955030,0,3,1,5,12,6,2,1
15:37:19.962026,-3,-1,-5,0,1,4,0,-1
15:37:19.977017,0,0,0,0,-1,-6,0,3
15:37:19.978016,-1,-2,0,4,1,-5,-8,-3
15:37:19.992007,0,-1,1,-2,-2,0,-7,3
15:37:20.000003,-2,0,-1,-1,-3,-3,-4,-4
15:37:20.014993,0,-2,0,1,2,-1,-6,-6
15:37:20.029986,0,-1,1,1,2,-3,0,-4
15:37:20.044974,-1,-3,-5,-1,-2,14,37,-1
15:37:20.045975,-1,0,0,-3,-3,-6,-15,-2
15:37:20.052972,-4,-2,-3,0,1,1,5,-3
15:37:20.059966,-1,-1,-3,-2,-3,-2,2,-3
15:37:20.074958,-1,-3,0,-2,4,0,-1,0
15:37:20.082954,-3,-1,-2,-4,-5,-4,-2,-3
15:37:20.097944,1,0,2,-1,8,-2,1,0
15:37:20.104940,-3,2,1,4,-12,-5,-4,-1
15:37:20.127923,-3,-3,-3,-5,-3,0,1,0
15:37:20.127923,0,0,1,-5,-3,0,-1,2
15:37:20.134921,-3,1,1,1,2,-5,-9,-2
15:37:20.141915,0,-1,-2,-3,-4,-6,-3,-1
15:37:20.157904,2,-1,-2,-1,-1,2,6,0
15:37:20.164899,-1,1,2,2,3,-1,-2,-1
15:37:20.179893,-1,1,0,1,5,-5,-2,-3
15:37:20.180892,1,0,0,0,0,-1,-2,-7
15:37:20.194882,-2,1,2,0,-4,0,0,-1
15:37:20.202876,-3,1,-2,-4,2,1,-3,0
15:37:20.217870,-3,1,-2,1,1,-3,0,-3
15:37:20.224863,1,2,-2,-1,-5,1,-2,-1
15:37:20.239853,1,1,1,2,9,2,3,-3
15:37:20.240853,2,-1,-1,-4,-1,1,2,1
15:37:20.254844,0,-1,-1,-1,1,2,-2,0
15:37:20.262841,-3,0,-1,2,-1,0,1,-4
15:37:20.277830,-1,0,1,-2,-1,0,-1,0
15:37:20.284825,0,-1,-1,1,-2,1,2,2
15:37:20.299816,-1,-1,-1,-5,0,-2,2,-1
15:37:20.300815,0,-1,0,-2,-1,-2,-1,-1
15:37:20.314809,-1,0,-1,-2,1,1,-1,-3
15:37:20.322803,0,4,-1,2,-1,-6,0,1
15:37:20.344788,1,-1,0,1,4,2,-1,-2
15:37:20.345787,2,1,-3,1,-1,1,0,0
15:37:20.359786,1,3,0,2,-6,-4,-1,0
15:37:20.360778,-1,-2,-1,1,-3,-5,-2,-1
15:37:20.374772,0,-2,-2,-3,1,-3,0,2
15:37:20.382768,-1,1,-4,1,-2,-2,-1,-1
15:37:20.397758,-1,-1,0,3,1,1,8,-4
15:37:20.404753,-1,2,-1,-1,1,0,-1,-2
15:37:20.419745,1,-3,-2,-4,-4,0,-1,-2
15:37:20.420741,2,0,-4,-1,-2,-3,3,2
15:37:20.434734,-3,-1,-2,-2,-3,-1,-5,-3
15:37:20.442728,-1,-2,-2,-1,-5,-2,-3,-5
15:37:20.457721,0,-2,-4,-2,-3,2,-2,-2
15:37:20.464717,0,-1,-4,1,1,-2,0,-1
15:37:20.479704,2,-4,0,-1,-1,2,0,1
15:37:20.487703,6,4,2,5,3,-6,4,7
15:37:20.494695,-3,0,-2,-3,0,-1,-3,-3
15:37:20.502693,-1,-2,0,-2,-5,-3,0,2
15:37:20.517681,3,0,-2,-1,0,2,0,1
15:37:20.524678,-5,-2,-3,2,-8,-2,-2,-2
15:37:20.539667,1,0,3,1,1,4,-2,1
15:37:20.540667,-3,-2,-1,-1,-3,-1,-1,0
15:37:20.555660,0,0,-2,5,-6,-7,0,3
15:37:20.562655,3,2,0,4,-3,1,3,0
15:37:20.577643,-2,-5,-2,-3,-2,-2,0,-3
15:37:20.585642,1,0,-4,-1,-2,-3,-3,-3
15:37:20.599630,-1,-3,-3,-1,2,-2,-1,-2
15:37:20.600630,-3,-1,-1,-2,-5,-1,2,3
15:37:20.615623,-1,-2,-1,-2,2,-1,-1,-3
15:37:20.622616,-1,2,2,1,4,1,0,3
15:37:20.637609,-1,-2,-2,1,-2,0,1,-3
15:37:20.644604,1,0,-3,-2,-1,1,3,0
15:37:20.660592,1,-1,0,-2,0,-2,-2,-3
15:37:20.662591,-1,-3,-3,-3,-5,-1,2,-1
15:37:20.675583,-1,-2,-3,1,1,1,-2,-4
15:37:20.682578,1,1,-1,-4,-9,1,2,0
15:37:20.697573,-3,0,-1,5,-3,1,-3,-3
15:37:20.704567,-4,0,-3,-2,0,1,2,-4
15:37:20.719557,1,1,1,-1,4,0,0,-1
15:37:20.720557,-1,1,0,-3,-5,-2,-1,1
15:37:20.735548,-4,0,-3,-4,-3,2,-2,0
15:37:20.742544,2,0,1,1,2,3,4,0
15:37:20.764527,0,-3,-2,0,2,-4,1,1
15:37:20.765527,-1,3,-1,-4,1,0,1,-1
15:37:20.779519,-2,-3,-1,-3,-1,-1,-2,-5
15:37:20.780517,3,-1,-3,-1,-1,1,0,1
15:37:20.795510,-1,0,-1,1,2,0,-1,0
15:37:20.802504,-1,-2,1,-5,-10,-6,0,2
15:37:20.817494,-2,-3,0,-1,-2,-1,0,0
15:37:20.825493,-3,-1,0,2,0,-2,-3,-5
15:37:20.840484,1,-2,0,-6,-3,-3,-2,-2
15:37:20.840484,-1,-2,-4,-4,-6,0,0,-1
15:37:20.855474,0,-2,0,-3,0,0,0,2
15:37:20.870465,1,1,0,-4,-2,0,1,1
15:37:20.877460,-1,1,0,-3,-7,0,2,-3
15:37:20.885455,0,0,0,0,-6,-3,-3,1
15:37:20.899446,-2,0,0,2,1,-1,-1,-1
15:37:20.900446,2,-1,-2,0,1,0,-1,2
15:37:20.915436,0,0,-3,-4,-7,-5,-1,1
15:37:20.922433,-2,0,-1,-2,-3,-4,-3,-1
15:37:20.937423,-3,-3,-4,3,1,-1,-1,-1
15:37:20.945418,-4,1,-1,-7,-3,-3,-1,-2
15:37:20.960406,-5,-2,-2,-5,-6,-5,-2,-3
15:37:20.960406,-2,0,-4,-1,1,1,1,0
15:37:20.975399,1,-1,1,-1,-2,-5,-1,0
15:37:20.982395,0,-2,0,8,0,3,1,-2
15:37:20.997384,0,-3,-3,5,5,2,2,0
15:37:21.005381,0,-2,-4,-3,-4,0,-2,-1
15:37:21.020369,-1,-1,-1,0,-4,-2,1,-1
15:37:21.027367,-3,-2,-4,-1,-1,-4,-1,-4
15:37:21.042358,-3,-1,-2,-2,0,2,1,-3
15:37:21.050353,-2,1,-2,-1,-2,-2,0,-2
15:37:21.057349,-2,-4,-3,-3,1,-1,-1,-1
15:37:21.080332,0,5,1,2,4,4,3,5
15:37:21.080332,-2,-5,-1,-10,-2,-3,-3,0
15:37:21.087328,-2,-2,-2,-1,-5,-1,0,-1
15:37:21.102318,-1,-2,-5,-5,3,1,-2,-1
15:37:21.103320,1,3,1,7,-8,-1,0,1
15:37:21.117311,0,2,3,4,0,-6,-4,-1
15:37:21.125304,-3,-2,-6,-8,1,4,-1,-3
15:37:21.140301,2,0,1,4,7,9,4,4
15:37:21.155288,0,-1,1,0,1,2,0,2
15:37:21.162281,1,-1,1,-1,0,-2,-5,-2
15:37:21.163280,-1,-3,0,-4,-6,-4,0,2
15:37:21.185267,0,-1,-1,1,3,-3,-2,-1
15:37:21.185267,-3,-2,0,-1,-1,-2,0,0
15:37:21.200257,0,-2,-1,-4,1,1,-2,-1
15:37:21.207254,-2,-1,-4,-6,-23,-1,1,2
15:37:21.222244,-3,-2,-2,-4,5,1,-2,-3
15:37:21.223243,-4,0,-3,-6,-5,-1,-3,0
15:37:21.237235,-3,-1,-2,2,-9,0,1,-4
15:37:21.245232,3,1,0,-1,1,1,1,3
15:37:21.260223,1,0,-3,-3,-2,-2,1,1
15:37:21.267216,1,1,-1,0,-3,-2,0,-1
15:37:21.282206,5,0,2,3,6,4,1,0
15:37:21.283206,-1,1,0,2,2,-4,1,2
15:37:21.297197,2,1,2,1,0,-2,0,-1
15:37:21.305195,0,-2,0,1,0,-1,0,-1
15:37:21.320183,0,-2,-1,-4,-3,-1,-3,0
15:37:21.327178,-2,-1,-3,0,0,1,-3,-2
15:37:21.350164,0,-1,0,-6,-6,0,-2,-1
15:37:21.350164,0,2,1,2,7,3,3,5
15:37:21.357162,-2,-2,0,0,1,-2,0,-4
15:37:21.365156,1,-3,-3,-2,-2,-3,-3,3
15:37:21.380146,-1,-1,-1,-4,-1,1,2,-2
15:37:21.387140,-3,-2,-1,1,3,3,4,2
15:37:21.402134,-4,-4,0,0,-2,3,-1,-3
15:37:21.403131,-3,-1,-2,2,-3,-4,1,-3
15:37:21.417122,1,-1,-3,-3,2,0,-2,-2
15:37:21.425117,-1,0,0,1,-1,-1,-1,-1
15:37:21.440108,-2,2,-1,-5,-1,-1,-1,1
15:37:21.447104,3,-1,0,-5,-7,-1,1,0
15:37:21.462095,-2,-2,2,3,2,1,1,1
15:37:21.463094,-3,1,-2,-4,-3,-1,-2,-3
15:37:21.477086,3,5,3,6,12,10,3,2
15:37:21.485082,2,0,-1,-1,-2,-1,0,2
15:37:21.500071,-3,-3,1,-5,-5,1,-1,-4
15:37:21.507067,-1,-1,-3,-2,0,1,1,-2
15:37:21.522057,0,-2,0,0,-2,-1,0,0
15:37:21.523056,0,1,-1,0,2,-2,-1,1
15:37:21.537060,0,0,0,1,-5,-5,1,-3
15:37:21.545043,-2,-3,-1,-2,5,1,1,-1
15:37:21.567029,3,2,5,6,10,7,3,3
15:37:21.568031,-1,-1,-1,2,-1,-1,2,-2
15:37:21.582022,0,-1,-4,-4,-4,2,-2,-1
15:37:21.583019,3,-1,1,-2,0,2,2,5
15:37:21.598010,-4,-1,0,2,2,0,-3,-1
15:37:21.605005,-1,0,1,0,-5,0,0,0
15:37:21.619997,0,0,-2,-3,-1,4,-2,-2
15:37:21.626992,-3,-3,-3,-2,-1,1,-1,-5
15:37:21.641984,1,-3,0,-3,6,1,1,-2
15:37:21.642984,-1,-1,-1,0,-3,-4,-4,0
15:37:21.656988,2,1,1,5,18,6,4,4
15:37:21.664970,1,0,-4,-2,-4,-2,1,-1
15:37:21.679959,3,1,-1,2,-3,0,1,1
15:37:21.686987,0,-2,2,4,2,-1,0,-1
15:37:21.701946,-1,-4,-1,-3,0,-2,-1,-2
15:37:21.702945,2,1,-2,-2,3,3,0,3
15:37:21.716970,-3,-2,-2,0,-1,3,0,0
15:37:21.724931,-1,-4,-1,2,-12,-3,1,-3
15:37:21.739922,3,3,1,2,7,5,1,5
15:37:21.746920,-3,0,-3,-2,5,2,1,0
15:37:21.761908,2,0,-2,0,-2,0,0,0
15:37:21.762909,-4,0,0,-1,-2,1,0,-2
15:37:21.776901,-4,-1,-2,0,-7,-3,-1,0
15:37:21.784896,-1,0,1,1,2,0,-2,0
15:37:21.799885,-2,0,1,0,0,-1,-1,0
15:37:21.806883,0,0,-1,-2,-2,-4,3,1
15:37:21.821872,-3,-4,-3,-2,2,0,-2,-3
15:37:21.822873,-1,-3,-1,-1,-1,-2,-1,-1
15:37:21.844859,0,1,-1,3,0,-6,-4,0
15:37:21.845858,-1,1,0,-9,2,-1,2,2
15:37:21.866844,0,0,1,6,-5,1,-3,-1
15:37:21.867846,-3,-1,-2,-4,-2,0,-3,0
15:37:21.881834,-1,0,0,1,4,0,0,2
15:37:21.882835,-3,-2,-3,-3,-4,1,0,-2
15:37:21.911818,0,-1,-4,-2,-1,-1,0,-2
15:37:21.912817,-1,-1,1,1,1,0,-3,-1
15:37:21.919812,0,2,-1,0,-1,2,2,1
15:37:21.926808,-7,-3,-3,-3,-2,-3,-1,0
15:37:21.941800,1,-3,-3,-1,-2,1,-2,-1
15:37:21.949794,-3,-2,0,2,3,1,-1,0
15:37:21.964784,0,1,-2,-1,4,-2,0,-2
15:37:21.964784,0,0,1,-1,-1,-3,1,-1
15:37:21.986770,0,0,-1,4,-1,0,-1,2
15:37:21.987770,-3,-2,-2,-5,-8,-5,-3,-5
15:37:22.002776,1,-1,-2,-4,6,5,-1,0
15:37:22.009757,0,1,0,5,1,0,0,0
15:37:22.024747,2,3,2,0,-1,4,1,3
15:37:22.024747,-2,-1,-1,-5,0,-3,-2,-1
15:37:22.039738,-2,-3,-2,-3,0,-1,0,-1
15:37:22.047733,-1,-1,0,-4,-2,0,-2,0
15:37:22.069719,0,-2,-1,0,-4,-3,0,1
15:37:22.070724,-2,-1,-3,-2,1,1,0,-3
15:37:22.084708,-1,-1,2,0,-3,0,-2,-1
15:37:22.085712,-3,-2,-3,-2,3,-2,-2,-2
15:37:22.099699,-2,-2,-2,-1,3,-1,-1,-2
15:37:22.107694,-3,-1,0,-2,0,-1,-2,0
15:37:22.122686,-3,-1,1,-3,-3,-5,-3,-4
15:37:22.129682,2,-1,1,-1,1,-1,-3,-3
15:37:22.144672,0,-1,-3,0,-1,1,1,-1
15:37:22.145671,0,-1,1,2,2,-2,-3,0
15:37:22.159662,1,1,3,2,3,0,1,3
15:37:22.167657,-2,0,-1,-1,0,-2,-1,-3
15:37:22.182647,-1,1,-1,-1,-1,-2,-3,-3
15:37:22.189643,-1,-3,-1,-3,-1,-4,-1,0
15:37:22.204635,-2,-1,-1,0,3,1,0,-1
15:37:22.205634,-4,0,-3,8,1,1,-5,-4
15:37:22.219626,-3,-2,-2,1,3,-4,-2,-1
15:37:22.227625,3,-3,2,0,1,0,0,2
15:37:22.242612,1,-2,-1,-1,-1,2,3,1
15:37:22.249606,-2,-1,-2,-2,-6,-3,-2,-1
15:37:22.264597,2,-3,-1,-1,3,0,-1,-2
15:37:22.265596,-1,1,0,-3,-4,-3,-4,-2
15:37:22.279588,-2,-1,3,-1,-10,-4,-3,-1
15:37:22.287585,0,-3,-3,-1,0,1,-1,-1
15:37:22.302575,0,0,1,-2,-11,-1,-2,-1
15:37:22.309569,1,-1,1,7,3,0,-1,1
15:37:22.324563,-2,1,-2,-3,0,-1,1,2
15:37:22.325559,-1,-3,-3,-6,-3,-1,-1,2
15:37:22.339550,1,-3,-1,-3,-3,-3,-3,-1
15:37:22.347547,3,0,0,-1,0,0,-1,2
15:37:22.362538,-3,-2,-2,-4,-1,-3,-1,-2
15:37:22.369532,-2,-3,-2,0,1,-2,0,-1
15:37:22.384522,2,-1,1,0,3,-1,0,1
15:37:22.385524,0,-3,-1,-2,-5,-4,-1,-2
15:37:22.399513,-1,-2,0,4,1,-2,-2,-2
15:37:22.407510,1,0,0,-6,-3,-5,-2,-3
15:37:22.429495,0,-1,-2,-1,2,2,0,-1
15:37:22.430496,-1,0,0,-1,-2,-2,-1,-1
15:37:22.444485,-4,-3,0,0,-1,1,0,0
15:37:22.445485,3,0,1,1,5,3,2,3
15:37:22.459477,-1,-4,-1,-3,-1,0,-1,-2
15:37:22.467472,1,0,0,6,-3,0,-1,-3
15:37:22.482463,-3,-2,-3,2,-5,1,-1,-1
15:37:22.489473,-3,-1,-2,-4,1,0,1,0
15:37:22.504448,-2,-1,1,-1,-6,-1,-3,-2
15:37:22.505448,-5,-2,-1,0,0,-3,0,-1
15:37:22.519464,-2,-2,-3,-1,-5,0,-1,-2
15:37:22.527435,1,0,-3,1,2,-3,0,0
15:37:22.542425,-3,-4,-7,-5,-5,-2,-1,-5
15:37:22.549423,-3,-1,-2,2,3,-3,1,-3
15:37:22.564412,-2,-2,-2,-2,-1,-1,2,-2
15:37:22.565412,2,-2,-1,-1,-4,-2,1,0
15:37:22.579405,-5,-1,-1,-2,0,-1,0,1
15:37:22.587398,-3,-5,0,-1,-4,-1,-1,-2
15:37:22.602389,-4,-6,-1,-13,-11,-4,-3,-1
15:37:22.609384,-2,-1,1,7,-3,-6,-1,-1
15:37:22.624373,-3,-2,-1,-8,-6,3,-2,-2
15:37:22.625373,1,1,2,0,0,0,1,0
15:37:22.640367,-1,0,0,-2,-4,-2,1,-3
15:37:22.647362,-3,1,-3,0,2,-5,-2,-1
15:37:22.662351,1,-1,1,-3,1,-1,0,-1
15:37:22.670345,2,-4,-1,2,1,-1,0,0
15:37:22.684338,-2,-1,-1,-1,-3,3,0,-1
15:37:22.685336,3,3,2,2,2,2,-3,3
15:37:22.700329,5,1,1,2,1,3,3,3
15:37:22.707324,-3,-1,-3,-14,3,-2,0,0
15:37:22.722315,0,-1,0,5,-7,-4,-1,-1
15:37:22.729310,0,-1,-1,-2,2,0,-1,-1
15:37:22.744300,-1,0,-2,-5,-1,-1,-3,0
15:37:22.745299,1,0,-1,0,-1,2,1,4
15:37:22.760290,-2,1,0,2,1,1,-3,-2
15:37:22.767288,-2,0,-2,0,0,-6,0,-2
15:37:22.782277,-2,1,-4,-2,-4,-4,-1,1
15:37:22.789278,2,-4,-2,0,0,-5,-2,-3
15:37:22.804265,2,1,1,-3,-3,-2,-4,-1
15:37:22.805262,0,2,3,-10,-1,-2,-1,2
15:37:22.820257,-3,1,1,0,-13,-4,-1,-2
