timestamp,emg1,emg2,emg3,emg4,emg5,emg6,emg7,emg8
15:43:14.818411,0,-2,-4,1,0,-1,-2,-4
15:43:14.834397,-1,-3,-5,-2,-5,0,-1,-1
15:43:14.834397,-1,0,0,0,4,0,-1,0
15:43:14.857383,2,0,2,2,-6,2,-1,-1
15:43:14.858384,-2,-1,-4,-51,-21,-3,-4,-2
15:43:14.871373,-1,-2,-1,9,13,1,-1,1
15:43:14.878368,-2,0,-1,-1,9,-3,-2,-2
15:43:14.893360,0,-3,-3,3,1,-2,-3,-3
15:43:14.894360,0,-5,-4,-2,0,-1,-1,-1
15:43:14.908350,-1,1,-1,-11,-8,-2,2,-4
15:43:14.915348,-2,0,-2,3,3,2,-3,1
15:43:14.931339,-3,-3,-3,-2,-4,0,1,0
15:43:14.938331,-2,-1,-3,-2,-3,-6,-1,-2
15:43:14.953324,-3,-1,-1,0,-2,-2,-1,3
15:43:14.954324,0,-1,1,-18,-11,-3,0,1
15:43:14.968315,-2,-1,-3,-7,-2,-4,-1,1
15:43:14.976310,2,-1,2,12,4,-4,-2,-1
15:43:14.991301,-4,-1,0,1,9,-1,-2,0
15:43:14.998294,-1,-1,-3,-8,-4,-4,-2,-1
15:43:15.013288,-1,-2,-1,-4,-4,-4,0,1
15:43:15.021282,0,3,1,14,1,0,-1,0
15:43:15.029274,-3,0,-1,2,0,-3,0,-2
15:43:15.036274,1,-1,-2,-2,-5,-3,0,-3
15:43:15.051262,0,2,-3,1,4,1,0,-2
15:43:15.059263,-1,-1,-4,-24,-10,-2,0,-3
15:43:15.073249,-1,-1,-1,6,3,0,-2,1
15:43:15.089240,-2,-4,-1,6,6,-3,1,-3
15:43:15.096236,0,0,-2,-4,-1,-1,-2,-1
15:43:15.096236,0,-3,-3,12,3,0,0,-1
15:43:15.111226,-2,-1,-2,2,3,0,1,-2
15:43:15.126218,0,0,0,7,-1,2,0,1
15:43:15.134213,-3,-3,-3,-1,1,0,-3,-1
15:43:15.141208,-1,-1,1,-1,1,-1,-2,3
15:43:15.156196,1,-3,-3,-1,-7,-2,-2,-2
15:43:15.157197,-3,-2,0,-3,-5,0,0,-1
15:43:15.171189,-1,-2,1,10,2,-4,0,-4
15:43:15.179185,-1,-1,1,-13,-12,-3,0,0
15:43:15.194176,-4,0,1,9,3,1,3,-1
15:43:15.201171,0,-1,-1,-2,-2,-1,-2,1
15:43:15.216162,-2,0,0,-3,-10,-3,-2,1
15:43:15.217161,0,-1,0,15,12,-1,-2,-2
15:43:15.231152,-2,-1,-3,-8,-9,0,-1,-1
15:43:15.238147,-3,-1,0,-2,-1,-2,-1,-1
15:43:15.254138,-2,-2,-2,-1,-3,-1,-3,3
15:43:15.261134,-1,3,0,-2,-4,-5,-1,-1
15:43:15.276124,1,-3,-2,-1,2,-1,-3,-1
15:43:15.277121,-3,-2,-3,15,-5,-2,-3,0
15:43:15.299107,-2,-3,-2,5,9,-3,-2,-4
15:43:15.299107,-2,-1,-4,2,-1,2,-2,-3
15:43:15.314101,-1,2,-1,2,2,0,1,3
15:43:15.321096,-1,1,-1,1,-10,-8,-3,-3
15:43:15.336087,-1,0,0,-5,0,0,-1,-3
15:43:15.337087,-1,-3,-2,-2,-3,-1,-1,-3
15:43:15.351078,2,-3,-1,-1,-1,2,-2,-3
15:43:15.359072,-2,-1,-3,-1,-1,-1,-2,0
15:43:15.374064,-1,1,-1,2,-1,2,2,-2
15:43:15.381059,0,-1,-1,-1,-3,-2,-3,-1
15:43:15.396050,-1,-3,1,2,3,2,-1,-1
15:43:15.397050,-1,-2,-2,-1,1,-2,0,3
15:43:15.411041,-1,2,-1,-1,-1,-4,-1,-1
15:43:15.419034,-2,0,1,-1,-3,-3,-4,-1
15:43:15.434027,-2,-4,-4,-5,-1,-1,-2,-3
15:43:15.441022,0,0,0,-2,0,0,-2,-1
15:43:15.456010,2,0,-2,-1,2,1,2,-3
15:43:15.457012,2,1,0,2,-3,-2,-3,-2
15:43:15.471003,-3,-2,-2,-3,5,2,1,0
15:43:15.478999,0,-2,2,17,9,-2,-1,-3
15:43:15.500985,-2,-2,-2,-9,-13,-3,-1,-3
15:43:15.501984,-2,-4,-1,-3,4,1,-1,-3
15:43:15.515976,0,-3,-2,3,3,-1,-4,-1
15:43:15.516972,-2,0,0,-4,0,-3,1,0
15:43:15.530966,0,-1,0,-1,-2,0,-1,-1
15:43:15.538959,-3,-2,-3,-2,-2,-2,-1,-3
15:43:15.553952,0,0,0,-1,2,0,0,-1
15:43:15.560946,-1,0,0,-1,-5,-2,-3,-3
15:43:15.575938,0,0,-3,-2,4,1,0,-1
15:43:15.576938,2,-1,2,2,1,1,0,0
15:43:15.590929,0,-1,1,-3,0,0,-1,-1
15:43:15.598924,1,-1,-2,11,1,-3,3,1
15:43:15.613915,0,2,3,26,8,0,0,1
15:43:15.620914,-2,-4,-3,1,-2,-1,-1,-1
15:43:15.635901,0,1,-1,-2,-6,-1,3,-1
15:43:15.636898,-1,-1,-4,-3,0,0,0,0
15:43:15.650889,-1,-2,0,0,-3,-2,2,0
15:43:15.658887,-1,-2,-2,-2,-3,-2,-2,-2
15:43:15.673878,-2,-3,0,2,0,2,0,0
15:43:15.681872,-1,2,-2,-2,0,1,-1,-1
15:43:15.695864,-4,-3,-2,-5,-9,-3,-2,-2
15:43:15.696861,-3,-1,-3,-5,1,-3,0,-1
15:43:15.710852,-2,-1,3,5,7,1,-3,0
15:43:15.718850,1,1,0,6,-5,-1,-1,-1
15:43:15.733841,-1,-2,-1,-1,-2,2,1,2
15:43:15.740838,-3,-3,-2,-1,0,-3,-1,-1
15:43:15.755827,-1,1,-1,-6,2,-1,-2,0
15:43:15.756825,-3,-1,-1,-2,-3,-3,-1,-5
15:43:15.771817,1,-1,-3,0,0,-2,-1,-3
15:43:15.778813,-1,1,3,2,-6,-2,-2,0
15:43:15.793800,-1,-2,0,14,1,2,-1,-2
15:43:15.809793,0,1,-3,1,1,-4,-1,-2
15:43:15.815790,2,1,1,1,0,-1,-1,-1
15:43:15.816789,1,1,-3,3,4,0,2,2
15:43:15.831778,-2,-5,-1,-4,0,-2,-1,-2
15:43:15.838773,-2,1,1,-1,-4,-4,0,0
15:43:15.853769,-3,-1,-1,-30,-10,-2,-1,-1
15:43:15.861761,0,0,-2,6,2,1,-1,-1
15:43:15.875752,-4,-1,1,0,-1,-1,-2,-3
15:43:15.876750,0,0,-2,2,6,0,0,1
15:43:15.891743,-3,-2,0,12,10,2,1,0
15:43:15.898739,-2,-2,-1,-7,-11,-2,-1,1
15:43:15.913729,2,-1,3,3,3,-1,1,-3
15:43:15.920722,-1,2,0,0,-2,3,0,2
15:43:15.935712,1,2,-1,0,-3,-2,1,0
15:43:15.936712,0,0,-2,-1,-2,-1,0,2
15:43:15.951703,-1,-2,-2,-1,-2,-1,-4,-4
15:43:15.966694,-4,-2,1,-3,2,1,0,-3
15:43:15.973692,-1,-1,-4,2,-5,1,3,2
15:43:15.981687,-1,-4,-3,-4,-1,-2,0,0
15:43:15.996678,-2,0,-2,-1,0,0,-2,-1
15:43:16.003673,2,0,2,14,3,2,3,2
15:43:16.018664,-3,-1,-2,-17,-15,0,-1,-2
15:43:16.019661,0,0,0,2,1,-2,1,3
15:43:16.033655,-3,-2,0,4,0,-3,1,-2
15:43:16.041650,0,1,-3,-2,-4,0,-2,0
15:43:16.056641,0,2,-1,-2,-9,-1,-2,2
15:43:16.063636,0,-2,-1,0,-2,2,-1,-1
15:43:16.078627,-1,0,2,11,0,-1,-2,1
15:43:16.078627,-3,0,-1,-20,-8,-1,-1,-3
15:43:16.093618,-1,-1,0,6,3,-1,0,1
15:43:16.101613,-3,0,-2,-5,-3,0,0,2
15:43:16.116600,2,6,4,18,9,-3,2,4
15:43:16.123599,0,0,-2,-7,-14,-2,-1,1
15:43:16.138590,-1,-4,-1,2,5,0,1,-1
15:43:16.139586,1,0,-3,2,0,3,1,1
15:43:16.154578,-2,1,0,1,0,-4,-2,4
15:43:16.161575,-2,-5,-2,-1,-5,1,0,0
15:43:16.176566,-1,0,-2,-1,1,0,-5,-4
15:43:16.183561,1,-2,1,7,-3,-1,-1,-2
15:43:16.198553,-5,-4,-3,0,0,-1,-1,-2
15:43:16.199552,-1,-2,-2,-26,-17,1,-2,1
15:43:16.213543,-1,-2,-1,-8,-1,-3,-2,-4
15:43:16.221535,-1,-3,3,9,3,0,1,0
15:43:16.236529,-1,-3,-3,-4,0,2,-1,-1
15:43:16.243524,2,3,-2,3,3,3,1,0
15:43:16.258515,0,-1,-3,-7,-10,-4,-1,-1
15:43:16.259515,-1,-3,1,5,7,-1,-4,1
15:43:16.273506,7,1,1,-3,-7,0,0,3
15:43:16.281502,6,0,2,22,10,0,-1,1
15:43:16.296492,2,0,0,-23,-24,-6,-2,0
15:43:16.303487,-2,1,0,6,5,0,0,-1
15:43:16.319476,-2,-1,-1,-2,1,-3,2,0
15:43:16.319476,2,0,-2,-4,-11,-2,-2,-1
15:43:16.333468,2,-3,0,3,-2,-2,-1,0
15:43:16.341463,-3,-1,-5,-5,-9,2,0,-4
15:43:16.356453,2,2,0,1,-4,-1,1,0
15:43:16.363450,6,-1,1,-4,0,-2,0,2
15:43:16.379437,1,1,-1,-1,2,0,2,2
15:43:16.379437,0,-1,-3,-4,-4,-1,-3,-1
15:43:16.393431,1,0,3,3,3,0,1,5
15:43:16.401427,-6,-1,-1,-13,-1,1,0,-3
15:43:16.416417,-1,-3,-2,-16,-12,-7,-2,-4
15:43:16.423411,-2,0,-2,2,-4,-7,-2,-2
15:43:16.438404,-2,-5,0,2,5,2,6,0
15:43:16.439400,-1,-2,1,-5,2,4,3,1
15:43:16.453394,0,0,-2,-1,4,-1,0,-2
15:43:16.461390,0,1,1,-1,-27,-2,1,2
15:43:16.476380,-1,-1,-2,3,11,2,-3,1
15:43:16.483377,-1,0,-4,-23,-2,-3,1,0
15:43:16.506361,-2,-3,0,-26,-13,0,-2,-3
15:43:16.507361,0,-4,0,5,2,-3,-2,1
15:43:16.513357,3,-1,0,0,-2,5,6,5
15:43:16.521352,-4,-4,-6,-4,-1,-2,-3,1
15:43:16.536343,-2,-2,0,-1,0,0,4,4
15:43:16.544337,-5,2,-4,-5,-5,-3,0,0
15:43:16.558329,0,1,1,16,-1,0,-3,-1
15:43:16.559329,-5,-2,-4,1,0,0,0,-1
15:43:16.574317,0,-1,0,5,5,0,-3,-1
15:43:16.581312,1,-4,-2,0,11,4,1,-4
15:43:16.596306,3,-2,-4,-4,-5,-2,-1,5
15:43:16.611296,2,0,0,-3,-3,2,0,1
15:43:16.618292,0,2,-2,-1,-4,-3,-3,-1
15:43:16.619292,0,-2,-2,-1,-1,-1,-2,0
15:43:16.634280,0,-2,1,-7,-1,-1,3,0
15:43:16.641278,-2,0,0,7,7,-1,1,0
15:43:16.656266,-5,-2,-1,-2,-9,-3,-3,0
15:43:16.663267,-4,-2,0,-5,-6,-6,-1,-1
15:43:16.678255,3,-2,-1,-2,-2,-2,3,2
15:43:16.679252,-2,1,-3,-1,-4,-5,-4,-4
15:43:16.694242,-1,-1,-3,-3,-1,0,0,0
15:43:16.701240,8,-3,-2,-2,3,0,3,3
15:43:16.716232,-3,1,1,-1,-5,-1,-2,0
15:43:16.724228,2,-2,0,-2,0,1,-2,2
15:43:16.739216,0,3,1,0,-2,-1,-1,0
15:43:16.739216,-1,-1,-3,-6,0,-1,1,-1
15:43:16.761204,-1,-2,0,0,1,-3,-1,-2
15:43:16.762203,-1,-4,1,0,-1,-1,-2,0
15:43:16.776194,-2,0,-1,3,-1,0,-2,-2
15:43:16.784189,1,2,-4,-19,-6,3,0,2
15:43:16.798180,-6,-1,-3,1,-3,-4,-1,-1
15:43:16.799177,6,3,-14,-6,-1,-1,2,6
15:43:16.814170,0,-2,4,7,0,-3,-1,-1
15:43:16.821166,-4,0,-2,1,-1,1,0,-1
15:43:16.844151,5,-2,1,4,-6,-1,3,3
15:43:16.844151,0,1,-2,0,1,3,-1,0
15:43:16.859140,-5,-3,-1,-1,-9,-3,2,1
15:43:16.859140,-6,-1,-1,-23,-13,-4,-4,-10
15:43:16.874134,-3,-1,-1,3,0,-8,-5,-2
15:43:16.881129,-2,-2,-2,5,6,3,1,3
15:43:16.896119,-1,-1,-2,-5,5,2,2,0
15:43:16.904112,2,-1,0,3,-2,1,1,0
15:43:16.919105,1,0,-1,-2,-1,-2,-2,-1
15:43:16.926101,-2,-3,-1,-10,-2,-7,-1,-4
15:43:16.941092,-5,-5,4,13,9,0,-2,3
15:43:16.942094,2,0,-1,0,5,0,2,-3
15:43:16.956082,0,1,0,8,5,1,0,2
15:43:16.971073,0,2,2,-2,-8,-1,0,-4
15:43:16.979068,0,-1,-2,-4,-3,1,1,1
15:43:16.986064,4,0,-1,0,-8,-5,4,-1
15:43:17.001054,-2,-2,1,11,5,1,-1,0
15:43:17.002054,1,-1,-3,5,7,3,3,2
15:43:17.016045,-1,1,-6,-10,1,6,-1,1
15:43:17.024040,-1,2,46,38,-5,2,3,0
15:43:17.039029,2,-4,-47,-85,-16,1,1,3
15:43:17.046027,-5,-3,9,27,-40,-6,-1,-3
15:43:17.061017,-1,-4,-55,-108,-128,-12,-3,1
15:43:17.062018,-21,-24,-1,59,70,-5,-12,-17
15:43:17.076008,2,-2,-14,-50,-34,-12,0,3
15:43:17.084000,-16,-20,-50,-6,50,-3,-9,-11
15:43:17.098994,6,15,-30,127,25,11,3,4
15:43:17.105986,1,6,24,51,-38,2,0,2
15:43:17.120980,7,16,38,-91,-43,28,9,4
15:43:17.121977,0,-50,-128,-128,-128,-89,-7,3
15:43:17.135970,-42,-4,127,127,-127,-33,-36,-41
15:43:17.143966,11,6,-47,127,4,-26,-6,10
15:43:17.158957,23,32,-128,-128,127,98,24,22
15:43:17.165953,28,9,-128,-128,-128,-128,5,21
15:43:17.180943,-53,-23,29,16,127,104,-47,-52
15:43:17.181943,4,-29,-55,-128,-128,-116,-3,5
15:43:17.195936,17,38,-73,127,127,78,6,13
15:43:17.203929,-3,-16,-12,127,-128,-11,5,5
15:43:17.218920,1,-33,-128,-128,-128,-51,3,-1
15:43:17.225915,-42,-22,93,127,38,-17,-31,-39
15:43:17.240906,24,23,6,-74,127,75,19,22
15:43:17.241904,20,3,-35,-128,-128,7,18,20
15:43:17.255895,7,3,-69,-82,-128,-37,2,-5
15:43:17.263891,-43,-39,28,48,3,-24,-25,-28
15:43:17.278882,43,49,30,-35,-47,10,18,19
15:43:17.285875,-16,-27,27,31,43,18,-10,-12
15:43:17.300869,8,2,-22,-104,-50,-5,3,18
15:43:17.301868,21,40,35,13,121,4,32,4
15:43:17.316860,-26,-31,-51,-128,-128,-59,-52,-20
15:43:17.323855,15,16,-16,2,-57,-1,-15,-30
15:43:17.338844,-84,-128,-78,-12,78,7,-11,-21
15:43:17.345838,22,41,80,127,127,-10,0,8
15:43:17.360831,47,61,37,-123,-128,-5,12,18
15:43:17.361829,22,-1,-14,77,127,79,18,15
15:43:17.376822,-43,-35,-7,-128,-128,-56,-7,-22
15:43:17.383818,7,52,38,-9,-128,-62,-8,-7
15:43:17.398808,107,127,64,-128,127,93,10,24
15:43:17.406801,-119,-128,-83,127,127,127,1,-23
15:43:17.420795,42,78,127,88,-128,1,5,9
15:43:17.421794,12,23,-2,102,-128,-52,-19,-3
15:43:17.436784,44,76,83,111,127,56,13,15
15:43:17.443780,-47,-56,-39,-41,-25,0,-10,-21
15:43:17.458771,13,18,13,27,-128,-7,-1,5
15:43:17.466763,-32,-90,4,127,127,98,14,11
15:43:17.480754,-1,-8,-117,-128,-128,-51,-9,-9
15:43:17.481754,-22,-34,39,127,127,42,-6,-12
15:43:17.496747,-20,-45,7,61,-14,53,5,-6
15:43:17.503743,14,24,-78,-128,-128,-128,-6,6
15:43:17.518733,24,100,102,67,6,58,-5,-9
15:43:17.526729,-21,-39,-71,-128,-128,-62,3,0
15:43:17.540719,4,-11,13,127,127,20,10,6
15:43:17.541718,35,60,37,16,122,38,8,11
15:43:17.556710,-12,-4,13,48,37,16,-7,-11
15:43:17.563706,-8,-1,73,127,71,21,0,-8
15:43:17.578696,42,81,42,72,3,9,1,6
15:43:17.585692,59,76,42,-50,32,69,18,28
15:43:17.600682,3,17,23,36,127,23,-4,-1
15:43:17.601682,6,20,15,-87,127,63,3,-2
15:43:17.616674,30,40,63,127,127,71,16,14
15:43:17.623669,-5,-2,-30,-12,-109,-14,-3,-1
15:43:17.638659,10,16,-8,-106,-63,9,5,7
15:43:17.646655,-27,-60,-42,110,127,70,-2,-10
15:43:17.661645,16,23,12,-53,-52,-13,3,8
15:43:17.661645,11,15,-1,-17,-109,-53,-2,6
15:43:17.676636,-62,-105,-86,127,127,96,-10,-19
15:43:17.683628,1,14,9,-48,-70,-11,-4,-2
15:43:17.698623,-5,-12,6,62,67,1,-5,-5
15:43:17.713613,4,5,-6,-63,106,-20,-1,3
15:43:17.720607,4,-1,14,127,113,29,8,7
15:43:17.721606,-3,-13,4,62,-38,28,2,3
15:43:17.736599,-12,-23,-28,-9,10,108,4,-4
15:43:17.743595,18,0,-41,-80,57,-19,12,17
15:43:17.758585,3,11,33,127,26,70,6,2
15:43:17.766580,-49,-75,-52,30,-128,-53,-15,-19
15:43:17.781570,14,21,10,-7,-128,-10,5,8
15:43:17.781570,-6,-18,-19,-9,-5,23,5,3
15:43:17.796561,14,33,-20,-115,-128,-60,-9,-5
15:43:17.803557,-1,1,33,-39,6,-1,-4,-2
15:43:17.818547,16,33,15,5,127,-15,0,4
15:43:17.826543,-10,-19,-27,8,51,3,1,-2
15:43:17.841533,4,10,29,79,56,38,1,0
15:43:17.842533,18,29,-2,-128,-41,-42,3,6
15:43:17.856524,4,8,-17,-120,6,12,-3,3
15:43:17.863520,-12,-28,-31,-29,-128,-58,-4,-3
15:43:17.878510,6,16,13,-13,-128,-40,-9,-3
15:43:17.886504,-16,-16,5,34,-36,6,-5,-6
15:43:17.901496,0,-1,6,105,72,41,4,0
15:43:17.908492,-2,-19,-58,-128,-128,-63,0,3
15:43:17.923483,-29,-36,-26,-43,127,45,-11,-15
15:43:17.924481,13,11,-2,-16,127,52,7,10
15:43:17.938470,-7,-10,-39,-128,-128,-35,-6,-6
15:43:17.946469,-11,-1,19,39,11,20,-6,-6
15:43:17.961459,-11,-27,-30,-16,-27,-15,1,-1
15:43:17.976450,1,6,8,47,-71,-2,1,2
15:43:17.983445,-1,5,44,-45,-46,-2,-1,-1
15:43:17.984445,-10,-10,10,127,89,66,3,-5
15:43:17.998436,5,1,-29,-99,-97,-26,-2,2
15:43:18.006431,3,5,54,127,127,28,4,3
15:43:18.021422,21,36,18,-58,-52,-19,4,4
15:43:18.028417,-17,-27,-16,18,35,20,-4,-9
15:43:18.043408,20,26,42,60,127,56,10,13
15:43:18.044408,-13,-11,91,122,25,-5,3,1
15:43:18.059395,15,28,18,-58,-128,-20,4,7
15:43:18.066393,-14,-15,22,103,75,36,0,-3
15:43:18.081385,1,8,27,60,-92,-3,-3,-2
15:43:18.088378,8,12,-22,-128,-128,-49,1,8
15:43:18.103371,-19,-17,-18,-20,-21,9,-6,-11
15:43:18.104372,15,20,15,-26,-68,-37,7,9
15:43:18.118360,-7,-9,-27,-80,-108,4,-4,-4
15:43:18.126357,0,7,-12,-128,99,-4,-4,-3
15:43:18.141347,-17,-20,-8,-106,30,8,-9,-15
15:43:18.148342,4,5,-5,7,-109,-5,2,4
15:43:18.163334,-4,0,24,103,127,5,-2,-4
15:43:18.164331,1,10,8,-5,-4,3,5,2
15:43:18.179321,5,6,6,-7,-24,-5,3,1
15:43:18.186320,-6,-5,-22,-71,-23,0,-1,-2
15:43:18.201307,-11,-2,3,18,9,3,1,4
15:43:18.209303,2,5,-6,-7,-15,-20,-6,-13
15:43:18.231292,17,7,-8,-11,-7,-1,8,-18
15:43:18.232292,37,46,13,22,37,31,-11,-110
15:43:18.239284,7,-68,-36,-30,-31,-65,-128,127
15:43:18.246283,127,16,22,21,40,86,52,126
15:43:18.268269,-78,34,-19,-32,-51,-30,127,-128
15:43:18.269268,-97,-89,-92,-98,-128,-71,-128,-10
15:43:18.283258,55,64,60,61,26,30,16,-128
15:43:18.284259,-128,-15,41,49,87,47,-128,82
15:43:18.299249,8,0,-55,-64,-79,-17,40,-118
15:43:18.306243,-1,25,24,37,53,110,43,40
15:43:18.321236,-83,-35,-16,-8,-3,13,49,6
15:43:18.329228,-2,-5,-17,-25,-36,-70,100,-32
15:43:18.343219,127,-27,22,33,67,95,41,124
15:43:18.344222,-8,13,-13,-21,-27,-5,65,-34
15:43:18.359212,19,1,27,36,51,33,26,4
15:43:18.366208,29,24,67,124,5,18,1,21
15:43:18.381199,38,-47,-1,84,89,31,7,60
15:43:18.388192,46,39,8,1,65,-9,5,-13
15:43:18.403188,26,14,0,-92,-51,-61,-21,19
15:43:18.404182,127,-58,-11,-88,127,59,34,115
15:43:18.419176,-58,113,82,127,127,24,5,-31
15:43:18.441162,-97,53,-63,43,44,-36,-17,-128
15:43:18.442160,102,58,107,127,127,-19,-79,127
15:43:18.449155,-28,2,34,-50,46,27,25,-39
15:43:18.464148,69,31,14,-40,-128,37,92,49
15:43:18.465144,127,6,-6,-6,8,-71,-23,62
15:43:18.479138,-57,-3,-2,86,86,-13,15,5
15:43:18.486134,39,5,26,-11,26,-42,-58,52
15:43:18.509118,21,19,8,-7,127,34,-37,33
15:43:18.509118,127,-14,50,61,127,44,-128,1
15:43:18.524108,49,12,-8,-66,96,5,22,55
15:43:18.524108,-45,-9,-37,-116,-128,-75,6,-48
15:43:18.546096,-128,3,-10,127,-128,21,-24,-90
15:43:18.547096,15,32,29,72,112,56,21,48
15:43:18.561087,-31,-14,-30,-107,-128,-8,-5,-31
15:43:18.569083,24,11,-4,45,36,55,79,110
15:43:18.584070,72,21,57,116,-25,47,23,38
15:43:18.584070,38,0,-21,-112,-16,15,28,19
15:43:18.599068,-37,15,-70,-2,-7,-6,0,-68
15:43:18.606059,8,18,62,73,-47,-7,-33,10
15:43:18.621050,65,-8,1,-57,127,-28,-7,-75
15:43:18.629043,53,-2,-14,-43,127,-27,-13,27
15:43:18.644034,33,12,44,-1,94,13,-7,-43
15:43:18.644034,-6,5,-7,-19,-103,-18,-14,-3
15:43:18.659027,-11,8,55,127,126,-23,-19,-22
15:43:18.666022,85,16,-14,-128,120,82,89,73
15:43:18.681009,16,2,1,63,-8,-52,-34,-33
15:43:18.689006,-26,-32,-22,99,94,26,22,-25
15:43:18.710994,-71,10,-44,-18,127,32,39,-48
15:43:18.711993,28,17,64,69,127,14,-1,21
15:43:18.718989,68,18,12,118,127,127,61,91
15:43:18.726984,-1,21,35,24,107,-11,12,-11
15:43:18.740975,-26,-16,-2,-84,-128,-5,-8,-31
15:43:18.748971,-14,-5,15,-128,-63,-41,-15,-7
15:43:18.763959,7,-4,-57,-8,127,28,-12,-24
15:43:18.763959,127,-6,17,76,3,42,84,88
15:43:18.778952,-2,8,-10,2,-7,-26,-32,-20
15:43:18.785948,102,8,42,112,75,29,21,29
15:43:18.800938,5,0,-43,-128,110,19,44,49
15:43:18.808934,-16,-8,-45,24,67,21,4,-21
15:43:18.823924,-5,-16,30,-15,-128,-66,2,-12
15:43:18.830919,-18,21,5,-128,-128,-32,-12,6
15:43:18.838912,12,-7,34,101,86,-23,-20,-7
15:43:18.845907,-11,-5,18,115,108,34,15,-3
15:43:18.860900,1,-11,-58,-118,-128,-32,-4,5
15:43:18.868896,-23,-6,21,37,95,3,-4,7
15:43:18.883887,42,-7,-9,-105,-25,0,-7,-3
15:43:18.891883,55,-11,32,17,95,-29,-13,8
15:43:18.905871,31,17,-7,-76,115,19,20,29
15:43:18.906871,0,7,-14,-42,-128,-2,9,8
15:43:18.920862,-19,-18,-23,-117,-128,-28,-32,-7
15:43:18.928859,-7,-7,-10,38,127,16,0,-7
15:43:18.943850,18,2,28,4,14,18,32,20
15:43:18.950843,-4,7,-6,-78,-128,15,31,19
15:43:18.965836,59,-15,-3,63,30,-32,-20,39
15:43:18.966834,2,2,-33,-128,-128,1,-3,28
15:43:18.981827,-30,-16,-10,35,127,8,-15,-33
15:43:18.988822,24,-3,16,-25,-128,-15,7,9
15:43:19.003813,-17,-8,-10,15,118,-3,-26,-19
15:43:19.011808,4,3,5,-80,24,16,13,37
15:43:19.025799,0,8,5,-30,-69,-10,3,-18
15:43:19.026798,-1,-1,-4,-75,-39,3,1,-9
15:43:19.041789,14,8,48,75,102,16,-1,8
15:43:19.048785,-14,-8,-5,18,-128,-18,-2,-6
15:43:19.063775,3,7,17,8,34,13,6,13
15:43:19.078766,-11,-11,-9,-12,-8,-3,-1,-1
15:43:19.085762,8,14,12,47,127,13,-4,4
15:43:19.086761,4,0,11,-3,54,1,-6,-8
15:43:19.101749,25,3,6,-29,4,21,11,6
15:43:19.108747,91,15,9,28,22,49,88,91
15:43:19.123738,17,15,19,34,7,25,26,12
15:43:19.131734,-11,-8,-31,-60,-120,-11,-2,-5
15:43:19.145722,-19,-11,13,73,53,-9,-11,-15
15:43:19.146724,5,1,5,85,83,14,10,5
15:43:19.168710,47,15,2,-23,9,7,18,26
15:43:19.169710,-7,5,3,11,31,6,-11,-1
15:43:19.183702,-3,-1,-3,-2,4,-8,-2,3
15:43:19.191696,-1,1,17,-1,-115,8,5,-3
15:43:19.205684,-27,-14,-6,7,62,-8,-5,-5
15:43:19.206686,3,8,3,-51,-13,9,2,-4
15:43:19.221683,2,-3,-20,-87,-77,-9,3,4
15:43:19.228670,-4,2,24,43,59,20,-4,-14
15:43:19.243664,5,2,-3,-25,-128,-20,3,-1
15:43:19.250663,-5,-12,-6,5,2,1,-9,2
15:43:19.266650,6,1,-4,-8,-9,1,-3,-12
15:43:19.266650,5,4,-4,-3,-16,-2,0,3
15:43:19.281640,5,3,3,-61,0,1,-6,-2
15:43:19.288635,-2,-5,1,33,19,10,2,2
15:43:19.303627,5,5,7,37,13,5,9,3
15:43:19.311621,1,1,2,2,3,4,2,5
15:43:19.326611,-2,-1,2,3,-2,1,1,-2
15:43:19.326611,0,-1,-2,1,2,6,2,0
15:43:19.341603,-2,-4,-2,-2,-4,-5,-4,-4
15:43:19.348599,-1,-2,1,0,2,1,2,3
15:43:19.363589,-1,2,3,4,-1,-4,-1,0
15:43:19.371585,4,4,4,3,3,3,3,5
15:43:19.386572,4,4,3,16,-19,-10,1,1
15:43:19.386572,-3,-5,-3,23,-20,2,-3,-2
15:43:19.401567,-3,-4,-5,5,7,-5,-5,-5
15:43:19.408562,-1,-1,-2,-2,9,2,0,-1
15:43:19.423552,-1,1,-1,-3,-4,-2,0,-2
15:43:19.431544,-1,0,-1,-4,-1,0,-2,-1
15:43:19.446535,2,0,0,0,-5,-4,-2,1
15:43:19.446535,-7,-4,-3,-6,-4,-2,1,-4
15:43:19.461527,-1,0,1,5,16,10,3,1
15:43:19.468524,-6,-6,-3,11,6,5,-5,-4
15:43:19.483515,4,1,3,2,4,1,5,2
15:43:19.491510,-3,-3,-4,-1,-40,-8,-7,-7
15:43:19.506498,0,0,2,-2,16,6,0,0
15:43:19.506498,-3,-3,-1,-3,-8,-4,-1,-2
15:43:19.521491,3,0,0,2,-4,-2,-1,3
15:43:19.528484,-1,3,1,1,3,-3,2,-2
15:43:19.551470,-1,-2,-2,-3,-4,-1,0,-1
15:43:19.551470,5,5,9,6,4,-5,2,7
15:43:19.566466,-1,-1,-3,-7,-6,-6,-3,-1
15:43:19.566466,-1,-2,-1,0,-1,-3,-3,-4
15:43:19.581454,2,1,-2,-26,3,-9,-2,1
15:43:19.588449,-5,-2,0,8,9,-4,3,3
15:43:19.603438,1,-4,-1,-6,-6,0,1,-2
15:43:19.611436,-1,-3,4,0,-9,2,1,-2
15:43:19.626426,0,-4,-1,-8,6,3,0,-2
15:43:19.627424,-1,-1,-4,-5,-7,-3,0,1
15:43:19.641420,5,6,7,13,24,9,9,8
15:43:19.648410,-1,0,1,5,-32,-10,-4,-5
15:43:19.663403,1,3,-1,-6,2,3,-1,1
15:43:19.671398,-2,-3,-1,1,0,2,1,-1
15:43:19.686389,0,-3,0,-1,-5,-4,0,0
15:43:19.687389,4,2,-1,-26,-6,2,3,4
15:43:19.701380,-4,-4,-7,8,0,-6,-5,-5
15:43:19.708375,-1,-2,0,1,-9,-6,2,1
15:43:19.723364,0,-2,-1,-2,-11,-8,-2,-4
15:43:19.731362,-1,-4,-3,-11,-12,-5,1,0
15:43:19.746352,1,0,5,6,14,0,-1,2
15:43:19.747352,1,2,4,5,5,-3,3,5
15:43:19.761340,-3,0,-3,4,-21,-10,-1,-4
15:43:19.768337,2,0,-1,-2,4,0,-4,-1
15:43:19.783328,-4,-3,-1,-2,-2,0,-3,-5
15:43:19.791324,-3,1,-4,-3,-4,0,0,-2
15:43:19.806312,-3,-2,0,-1,-5,-3,-1,-1
15:43:19.813315,-2,-1,-2,8,1,0,-1,-4
15:43:19.828301,-4,-2,-1,-3,-11,-1,-2,-4
15:43:19.829301,-1,0,-2,-1,1,0,0,1
15:43:19.844290,-2,-5,-5,-12,-17,-4,-1,-4
15:43:19.851287,-2,0,-1,1,9,1,2,2
15:43:19.866278,-2,1,0,1,5,2,0,-3
15:43:19.874271,1,0,0,-4,-8,-2,0,2
15:43:19.896259,0,0,-2,0,-4,-2,0,0
15:43:19.897256,-2,1,-5,0,1,5,3,-1
15:43:19.903253,4,3,1,8,0,-1,1,1
15:43:19.911250,-1,-4,-5,-12,-6,-5,-3,-2
15:43:19.926241,0,-2,1,-11,13,-2,-2,-1
15:43:19.934233,0,0,2,8,11,5,5,5
15:43:19.949226,1,-2,0,-1,-6,-2,-1,1
15:43:19.949226,-3,0,-2,0,-1,2,1,0
15:43:19.964217,-2,-3,-3,-2,-3,-3,-1,0
15:43:19.971212,1,-1,-2,1,-5,-6,-4,-2
15:43:19.986203,0,0,-1,-5,-11,-2,-2,-3
15:43:19.994199,-2,-1,-2,0,2,-2,-1,-3
15:43:20.009189,2,0,-3,-3,-2,0,0,-2
15:43:20.009189,-1,-1,3,8,10,3,5,5
15:43:20.024180,1,-1,1,-3,-5,-1,-3,-1
15:43:20.031176,-1,-1,-3,0,2,1,2,1
15:43:20.046166,-2,0,1,5,-2,-3,-2,-1
15:43:20.053161,-1,1,1,10,17,6,0,-1
15:43:20.069151,-3,0,0,-3,-2,0,-2,-1
15:43:20.069151,-4,0,1,-3,-2,-4,0,2
15:43:20.084143,0,0,-1,2,-6,-2,-3,-2
15:43:20.091138,-2,-5,-4,0,3,-2,0,0
15:43:20.106126,0,-6,1,8,-7,0,-3,-3
15:43:20.114124,0,0,-4,-6,-3,-7,-2,0
15:43:20.129112,-6,-3,-5,-2,-7,-1,-1,-6
15:43:20.129112,-1,-2,0,-1,-2,0,0,1
15:43:20.144105,1,-3,1,0,-2,-3,-3,2
15:43:20.151101,2,-1,-1,13,-1,-3,1,3
15:43:20.166092,-3,-3,-5,10,-2,-7,-6,-3
15:43:20.181082,-3,0,-1,-11,-9,2,5,0
15:43:20.189075,-2,0,-4,2,-2,-3,-2,-1
15:43:20.189075,-2,-2,-2,-2,-2,1,-3,-1
15:43:20.211064,1,0,1,-3,-1,-2,0,0
15:43:20.212063,-3,-2,-3,-3,-13,4,-2,-1
15:43:20.226055,1,1,-1,3,-7,-8,-5,-1
15:43:20.234050,-1,-3,-1,-3,2,1,-3,-3
15:43:20.249037,-1,-3,0,-3,-6,-7,-3,-3
15:43:20.249037,2,0,3,-5,-16,0,2,3
15:43:20.264031,-1,0,1,-4,-19,-3,-2,0
15:43:20.271026,3,-3,0,10,18,2,0,1
15:43:20.286015,0,0,-1,-8,0,-1,-1,3
15:43:20.294013,-2,-1,-1,-4,-5,3,1,-3
15:43:20.309001,-2,1,-1,14,2,-2,-3,1
15:43:20.309001,-4,-3,-4,-7,-9,0,-1,-1
15:43:20.323994,1,2,-1,4,5,-2,-2,-1
15:43:20.330989,-1,2,0,-3,1,1,0,2
15:43:20.345980,-2,-2,0,-1,-6,-4,-1,-2
15:43:20.353975,2,-1,3,3,5,0,2,4
15:43:20.368963,-1,0,-1,2,7,0,-1,-3
15:43:20.368963,3,3,0,-23,-23,0,3,3
15:43:20.390952,-4,-3,-3,6,7,-5,-4,-3
15:43:20.391949,0,1,3,8,0,1,3,5
15:43:20.405942,-3,0,-2,-4,0,-1,0,-3
15:43:20.420946,-1,-1,-1,-2,-1,-3,1,1
15:43:20.428927,-4,1,-2,-3,-1,-1,0,0
15:43:20.428927,-4,-3,-4,-6,-8,2,-3,-1
15:43:20.443916,4,1,3,6,4,4,3,4
15:43:20.450915,0,-1,-3,-3,4,2,-2,2
15:43:20.466905,-1,-3,-1,-6,-5,-1,-1,-1
15:43:20.473901,-1,-2,-2,-3,0,3,2,-1
15:43:20.488889,-1,0,3,7,23,5,0,0
15:43:20.489889,-1,-4,-2,-25,-14,-1,-1,-2
15:43:20.503882,-2,-1,-1,1,0,0,2,-1
15:43:20.510877,1,3,2,5,-5,4,3,5
15:43:20.525869,0,-2,-1,-4,-6,-2,-1,-3
15:43:20.533864,-2,0,-1,-17,-7,-4,-1,-3
15:43:20.548852,-2,-1,-2,4,6,0,-6,-3
15:43:20.548852,0,1,3,11,2,-4,0,2
15:43:20.563845,-3,0,-4,22,26,-4,-2,-4
15:43:20.570838,-1,-2,-1,0,17,-7,0,-2
15:43:20.585830,-2,-6,-3,-5,2,-1,-5,-4
15:43:20.593825,-5,-2,-3,-112,-109,-15,-5,0
15:43:20.608817,-7,-7,-6,18,29,-2,-7,-8
15:43:20.608817,1,1,-1,-2,-11,-1,4,4
15:43:20.623808,-1,1,-3,-2,-1,-1,-2,0
15:43:20.638799,-1,-1,0,-1,-5,1,1,1
15:43:20.645792,1,1,-3,-4,-4,-3,-1,0
15:43:20.653789,-2,1,-5,-1,-2,-2,2,-1
15:43:20.668777,-4,-2,-4,-9,-20,0,-4,-4
15:43:20.668777,-1,0,-1,6,34,0,0,0
15:43:20.683767,-3,-2,-3,12,10,-5,0,-3
15:43:20.691766,0,-2,0,8,14,0,1,0
15:43:20.706755,2,-2,-2,-40,1,-2,-2,-1
15:43:20.713752,-6,-4,-4,8,1,-1,-2,-8
15:43:20.728743,-1,-2,0,-5,1,0,-1,-2
15:43:20.735739,-2,-4,-1,7,13,-4,0,0
15:43:20.743734,-3,0,0,1,21,1,-2,-1
15:43:20.750729,-1,-1,-2,-6,4,0,2,2
15:43:20.766719,1,-1,-4,1,18,-4,-2,1
15:43:20.773715,-1,2,-1,-13,-5,-2,2,3
15:43:20.788706,-2,-3,-3,2,11,-2,-2,-4
15:43:20.796700,-1,-4,2,6,30,1,0,1
15:43:20.811688,-2,-2,-1,0,3,-3,-3,0
15:43:20.811688,1,-4,-1,-4,-15,-3,0,-4
15:43:20.826682,-1,1,-1,4,7,2,1,0
15:43:20.833675,-3,-3,-1,0,-35,-9,-3,0
15:43:20.856668,-2,0,-2,-5,3,-2,-2,-2
15:43:20.856668,4,1,-3,-10,4,4,4,6
15:43:20.871652,0,0,0,-17,-58,-6,0,-2
15:43:20.871652,1,-1,-3,8,26,2,1,0
15:43:20.886644,-1,0,1,1,4,0,0,-3
15:43:20.893641,-1,0,-3,-1,-2,1,0,1
15:43:20.908631,1,-1,0,2,-1,-2,-3,2
15:43:20.916626,1,-2,-1,3,-2,-2,1,3
15:43:20.931614,7,5,8,20,25,5,8,10
15:43:20.931614,0,2,2,-39,-128,-10,2,2
15:43:20.946608,-6,-5,-5,16,11,-10,-6,-6
15:43:20.953603,5,0,1,-8,6,0,3,3
15:43:20.968594,-5,-5,-1,0,3,1,-3,2
15:43:20.976589,0,3,1,0,-127,-8,1,2
15:43:20.991580,-3,-4,-8,-96,42,0,-1,-2
15:43:20.991580,-1,-2,1,47,10,2,-2,-3
15:43:21.006568,-3,0,1,71,13,-2,-4,-2
15:43:21.013566,-1,-2,-2,0,48,0,-1,4
15:43:21.028557,-2,-1,-1,-9,5,1,-1,-2
15:43:21.036552,0,-5,1,-4,13,1,0,1
15:43:21.051540,0,1,-3,-4,-2,0,-3,0
15:43:21.051540,-1,0,-3,5,-8,0,-1,0
15:43:21.066534,-1,0,-2,2,-1,-4,1,2
15:43:21.073529,2,1,3,10,27,10,5,5
15:43:21.088520,-3,-5,2,21,4,-10,-4,-5
15:43:21.096515,-2,-1,-5,0,20,5,-1,-2
15:43:21.111503,0,-1,-1,-3,3,-3,0,-1
15:43:21.111503,1,-1,0,-1,-13,-1,0,6
15:43:21.126496,-1,0,-1,-5,29,2,-1,-4
15:43:21.133492,2,-1,-2,-2,19,2,2,2
15:43:21.148482,0,1,-2,-128,-1,1,3,1
15:43:21.156477,-6,-6,1,36,15,3,-2,-1
15:43:21.171466,0,2,-1,21,-7,2,0,1
15:43:21.171466,4,2,4,5,-52,-10,-2,4
15:43:21.186459,-1,0,-2,2,12,1,-3,-4
15:43:21.193452,1,3,4,-1,-55,1,5,6
15:43:21.208445,0,0,-2,19,-26,-2,-1,-6
15:43:21.216441,3,0,1,10,4,2,3,-1
15:43:21.231428,-1,2,2,6,9,1,1,2
15:43:21.231428,-2,1,0,25,-21,0,0,0
15:43:21.246421,3,-2,-3,-9,-1,0,-3,1
15:43:21.253417,0,0,1,3,0,2,4,-1
15:43:21.283399,-6,-2,0,-8,26,0,-3,0
15:43:21.284396,-2,-1,-2,1,13,2,-1,-2
15:43:21.291391,-4,-1,1,1,-5,-1,0,0
15:43:21.291391,0,1,3,12,2,0,-3,-1
15:43:21.306385,1,1,-1,0,-4,1,-2,0
15:43:21.313379,0,-1,0,1,0,2,-1,-1
15:43:21.328370,1,0,1,-8,8,-1,1,-2
15:43:21.336366,-5,-4,-1,1,50,3,0,-4
15:43:21.351357,0,3,-2,19,4,0,-1,0
15:43:21.352353,0,-1,-3,8,3,-2,-3,1
15:43:21.366347,-3,-1,0,3,-6,-1,-1,1
15:43:21.374343,1,1,3,0,6,1,1,1
15:43:21.388332,-1,-1,-2,-8,4,0,-3,-1
15:43:21.396329,4,2,6,5,1,1,0,3
15:43:21.411319,1,-3,-3,-49,-1,8,4,0
15:43:21.411319,-2,1,-1,7,-88,-5,-4,-1
15:43:21.426310,-6,-3,-4,13,10,-2,-4,-4
15:43:21.434306,1,-2,-1,9,0,0,0,-1
15:43:21.449296,1,1,-1,-1,4,1,-1,0
15:43:21.456293,3,2,1,6,-11,-1,-1,1
15:43:21.471282,3,0,-2,-6,2,-4,0,2
15:43:21.471282,0,2,2,0,-29,1,0,1
15:43:21.486273,0,-1,2,0,-43,2,0,1
15:43:21.494268,2,1,-4,-31,5,3,0,1
15:43:21.509259,-3,-5,-4,6,36,1,-4,-3
15:43:21.516255,1,0,1,-3,6,2,-1,4
15:43:21.531245,2,0,1,19,8,1,-1,0
15:43:21.532244,-1,-1,-3,-20,13,-2,0,-4
15:43:21.546236,-2,-4,-1,6,15,-3,-3,-3
15:43:21.553233,-1,1,-1,-2,8,3,0,-2
15:43:21.569222,-1,-3,-3,-2,-2,1,-2,2
15:43:21.576217,2,1,-2,-31,1,2,-1,0
15:43:21.591208,-3,-2,-2,4,-13,-2,-3,-2
15:43:21.592205,2,3,-1,1,11,3,2,3
15:43:21.606195,1,-2,-3,-6,-8,2,-1,-2
15:43:21.614194,-1,2,0,1,1,0,-2,-1
15:43:21.629185,-1,-3,-2,0,1,-1,0,0
15:43:21.636180,3,2,-1,-17,-26,-8,-1,1
15:43:21.651171,-3,-4,-1,17,19,4,-2,-6
15:43:21.651171,1,-2,-4,-16,14,-1,0,-4
15:43:21.666162,1,0,7,11,29,3,1,1
15:43:21.674157,-2,0,-2,-41,-65,-7,-1,-5
15:43:21.696143,-1,-1,-1,5,7,1,-1,-2
15:43:21.697142,-1,2,1,-1,2,1,3,-1
15:43:21.711133,0,-4,1,-2,0,-1,-2,-1
15:43:21.719128,-3,0,-1,-4,-8,-4,-1,-3
15:43:21.734117,0,-2,0,14,15,1,3,2
15:43:21.734117,-2,0,1,-3,-1,3,2,-1
15:43:21.749107,0,-3,-1,1,1,0,0,-1
15:43:21.756106,-3,0,-6,-6,-10,-8,-5,-2
15:43:21.771096,-2,2,1,-9,-6,2,0,-1
15:43:21.779091,-4,-5,-2,13,48,2,0,-3
15:43:21.794080,-1,-3,-2,-1,15,-5,-5,-2
15:43:21.794080,0,1,-2,-5,-1,0,0,-2
15:43:21.809073,0,0,-1,-2,0,-2,-2,1
15:43:21.816069,2,1,1,3,2,2,0,0
15:43:21.831059,-4,-1,-3,-5,4,2,-3,-2
15:43:21.839056,-1,0,1,-25,5,2,1,-3
15:43:21.854044,0,1,2,10,2,-6,-3,1
15:43:21.854044,3,2,0,9,9,1,0,-1
15:43:21.869035,-3,3,-1,-3,-10,-6,-2,2
15:43:21.876031,0,-4,-3,1,9,0,-3,-1
15:43:21.891022,-2,-5,-2,5,-13,-4,0,-5
15:43:21.899017,3,6,1,6,6,3,4,1
15:43:21.914007,-2,0,0,-8,-4,3,1,0
15:43:21.915005,2,1,-4,-1,-1,1,-1,-3
15:43:21.935994,0,0,-1,-1,5,3,1,1
15:43:21.936993,1,2,0,-1,-6,-3,0,-1
15:43:21.950985,-1,-1,0,21,-1,-1,0,-3
15:43:21.958980,-1,-3,1,9,38,2,-1,-1
15:43:21.973970,0,1,3,0,4,-1,3,3
15:43:21.973970,7,2,0,-33,1,-5,-1,2
15:43:21.988962,0,-4,-4,-1,-4,-4,-3,-2
15:43:21.995957,0,-2,-5,1,-4,3,-2,-2
15:43:22.010947,-1,-3,-2,1,-10,-3,1,0
15:43:22.018942,0,-2,-2,0,2,1,2,0
15:43:22.033933,-1,-2,0,23,1,1,2,-1
15:43:22.033933,-1,-2,0,4,2,3,-1,-2
15:43:22.048924,-2,-1,-4,-1,-7,-7,-2,0
15:43:22.055920,2,-1,-2,0,4,5,0,-1
15:43:22.070908,4,3,3,20,39,1,2,2
15:43:22.078906,-2,-1,-2,-23,-6,-1,-4,-2
15:43:22.093896,-2,-3,-2,6,18,3,2,-2
15:43:22.094895,-3,2,-1,2,-3,-1,-3,-1
15:43:22.108887,1,-2,-1,-3,2,-1,-2,0
15:43:22.116882,2,1,2,0,-2,-2,-1,-3
15:43:22.130870,-1,0,-1,-2,-1,-1,-1,-3
15:43:22.138869,8,4,5,11,5,1,1,5
15:43:22.153859,2,1,-3,10,8,3,0,-1
15:43:22.154858,3,4,2,-7,-5,-2,-2,-2
15:43:22.168850,-3,-4,-2,9,9,1,0,-1
15:43:22.175845,2,3,-1,-40,-7,-1,-2,2
15:43:22.190835,0,-2,1,6,6,7,0,2
15:43:22.198831,1,-1,1,2,2,0,1,0
15:43:22.213822,-1,-1,-3,-5,-3,0,-1,1
15:43:22.213822,-1,1,2,2,9,-1,0,-1
15:43:22.228813,-1,-2,-3,11,1,3,0,-2
15:43:22.235807,2,2,4,13,-3,2,2,2
15:43:22.251796,0,-3,-5,-5,1,3,2,-6
15:43:22.258794,2,2,1,-7,-4,2,0,3
15:43:22.280781,-3,-3,-1,-3,-2,4,3,1
15:43:22.281780,0,-2,0,5,0,-7,0,-4
15:43:22.288775,-1,-1,0,-4,0,-1,-1,-1
15:43:22.295769,-2,0,3,-3,-2,2,0,1
15:43:22.311761,-1,1,1,-2,-3,-3,-2,-2
15:43:22.318757,3,1,1,2,0,0,2,0
15:43:22.333748,-2,-3,-3,-4,-9,-7,-3,-3
15:43:22.334745,6,6,5,11,10,3,3,6
15:43:22.348738,0,2,5,14,20,5,0,0
15:43:22.356731,0,-3,-3,-19,-7,1,1,0
15:43:22.371721,0,-2,0,5,3,-5,-4,2
15:43:22.378720,-1,-1,-1,-17,-16,-2,-3,-3
15:43:22.393708,-1,-2,1,5,5,1,0,0
15:43:22.393708,1,2,-1,1,2,1,-1,1
15:43:22.408701,-2,-1,1,-3,-1,-1,-2,0
15:43:22.416696,-5,-1,-4,-11,-10,-5,-5,-4
15:43:22.431688,-6,-5,-3,1,-1,-5,-6,-7
15:43:22.438680,1,0,0,1,1,6,1,0
15:43:22.453673,1,-1,0,7,10,5,-1,-1
15:43:22.454673,0,5,0,-22,-13,2,4,2
15:43:22.468664,0,-2,-1,-28,-10,0,2,0
15:43:22.476659,-2,-1,-1,5,4,1,-5,-2
15:43:22.491650,1,-1,-3,-5,-9,-7,-1,-1
15:43:22.498645,-3,-1,-1,-2,-4,-2,-2,-3
15:43:22.513636,0,-1,-2,0,-2,-1,0,-2
15:43:22.514634,-3,0,2,-1,-1,-3,1,3
15:43:22.536620,0,-1,-1,-3,-3,-1,-4,-3
15:43:22.536620,2,1,2,1,6,8,3,3
15:43:22.551613,-3,-1,-1,9,-5,-4,-1,-1
15:43:22.558608,-6,-4,0,2,8,-2,-3,-3
15:43:22.573599,-1,1,1,-4,-4,-2,-2,-1
15:43:22.574595,0,-4,-2,-3,-1,1,2,0
15:43:22.595585,1,3,1,1,-10,-5,0,0
15:43:22.596584,-1,-3,-3,1,-4,-1,-3,0
15:43:22.611575,1,1,3,7,2,2,2,0
15:43:22.633562,-1,-1,1,-29,-18,3,-1,1
15:43:22.634561,-1,0,0,14,6,1,1,0
15:43:22.641557,-1,-3,-1,-6,-3,1,-4,-3
15:43:22.656547,-1,-3,-2,-6,-1,-1,-1,0
15:43:22.657543,4,4,2,3,2,-1,-1,6
15:43:22.671537,2,-1,-1,-12,-3,-1,-3,-3
15:43:22.678533,0,-1,0,1,-8,1,3,-2
15:43:22.693527,-5,-5,-2,-4,4,1,-2,0
15:43:22.701520,0,1,0,-1,-11,-7,-2,1
15:43:22.716511,2,-1,2,4,0,1,-1,-1
15:43:22.716511,1,1,-1,1,2,0,0,-1
15:43:22.731499,-1,-3,-1,16,4,1,0,-2
15:43:22.738495,6,4,2,-8,5,11,6,5
15:43:22.753487,-5,-2,-1,3,1,-1,-3,-2
15:43:22.761486,-2,0,-4,-1,0,-1,-1,1
15:43:22.776473,-1,0,1,2,0,0,-2,-1
15:43:22.777470,-1,0,-4,-5,-3,-1,-1,1
15:43:22.791464,4,-1,3,4,4,3,1,0
15:43:22.798458,0,0,-4,-2,-4,-2,0,-1
15:43:22.814447,0,0,-1,-11,-8,5,3,1
15:43:22.821443,-3,-1,-2,23,14,-3,-3,-1
15:43:22.836432,0,2,-2,-9,-6,-1,-2,2
15:43:22.836432,-1,-2,-4,12,-1,-2,-3,0
15:43:22.851426,2,-2,0,-15,-12,-5,1,-4
15:43:22.858422,1,2,1,10,8,5,1,3
15:43:22.873411,0,0,-1,-5,-10,-2,-3,-4
15:43:22.881408,-2,-6,-2,-2,-4,-1,-2,3
15:43:22.896399,-1,-1,-3,1,1,-4,-2,2
15:43:22.897395,-2,-1,-1,-1,-3,-4,0,0
15:43:22.911389,-3,0,-1,8,-21,-3,1,-2
15:43:22.918383,-5,-7,-5,-1,10,-2,-4,-6
15:43:22.934372,1,-2,0,-1,-2,0,1,-3
15:43:22.948367,-2,-2,-2,6,-1,-3,1,-1
15:43:22.956359,-5,-2,-4,-21,-15,-6,-1,-3
15:43:22.956359,-1,0,0,13,9,2,-2,0
15:43:22.971352,-2,-1,-1,3,-2,-4,-1,-5
15:43:22.979345,1,-1,-1,-3,-9,-3,5,3
15:43:22.994337,0,0,-3,-3,0,-2,-1,-4
15:43:23.001333,-3,0,-3,-3,-4,2,6,-2
15:43:23.016325,-1,-2,-3,1,-1,1,1,2
15:43:23.017323,-2,0,-1,0,7,3,3,1
15:43:23.031315,0,-1,-1,6,-8,-5,-9,-4
15:43:23.038310,1,-5,-4,0,7,-1,5,6
15:43:23.054300,0,-1,-2,-3,-5,-1,-3,0
15:43:23.061296,-3,-3,-1,-2,-6,-2,0,-4
15:43:23.076287,-1,-3,-2,-2,-4,0,-2,-2
15:43:23.077284,-2,0,-1,14,-2,-8,-1,-1
15:43:23.092274,1,-1,-1,-13,-12,-1,-1,0
15:43:23.099273,-2,-2,0,9,-2,0,1,3
15:43:23.121259,0,-1,-1,-3,2,-1,-4,0
15:43:23.122255,0,-3,-4,3,-7,0,-4,2
15:43:23.136249,-1,1,2,6,9,3,2,7
15:43:23.137249,-3,0,2,7,2,-2,1,0
15:43:23.151240,1,4,1,2,1,1,1,0
15:43:23.166231,-5,-5,0,-8,-3,-3,-1,-4
15:43:23.174227,1,-2,-5,-7,-15,-3,-4,-4
15:43:23.181222,-4,-1,-3,2,4,-1,-2,0
15:43:23.196212,1,-1,1,-4,6,1,1,0
15:43:23.197212,-3,-2,-1,5,-7,-2,-1,1
15:43:23.211203,-3,-3,-3,-34,-9,1,-1,0
15:43:23.219198,0,-2,-5,5,0,-3,0,-3
15:43:23.234189,-4,1,-1,1,-5,1,-1,-1
15:43:23.241185,-4,-3,-3,-8,-5,-6,-1,2
15:43:23.256175,-3,-1,-3,11,-6,-4,-2,1
15:43:23.257175,-1,-1,0,5,5,3,0,-2
15:43:23.272164,0,1,2,1,5,-1,-1,-1
15:43:23.279162,-2,0,-6,-2,-1,2,0,3
15:43:23.294151,1,4,0,2,-11,-6,-1,0
15:43:23.301147,1,2,0,15,20,7,4,5
15:43:23.316138,-2,-1,-1,6,-2,-3,-1,-2
15:43:23.317138,-3,0,-1,3,1,1,1,0
15:43:23.339121,1,-1,-2,-2,-4,-3,0,-1
15:43:23.339121,0,1,-4,-9,-9,-1,1,2
15:43:23.354118,-5,-2,1,1,5,-1,0,-1
15:43:23.361110,3,0,3,6,13,10,5,1
15:43:23.376101,0,0,-3,-36,-17,-2,0,0
15:43:23.377099,-1,0,-2,4,4,3,3,-2
15:43:23.392091,-2,2,-2,1,0,-3,-1,0
15:43:23.399087,-2,0,-3,-1,1,0,0,2
15:43:23.414078,0,1,-2,-2,-3,-3,1,-2
15:43:23.421073,-3,-4,-3,-6,-2,-1,1,1
15:43:23.436064,5,1,4,14,8,1,5,5
15:43:23.437063,1,1,0,-26,4,4,-1,-2
15:43:23.459048,0,1,-1,8,6,-4,1,-1
15:43:23.459048,-1,-2,-1,-6,2,4,0,0
15:43:23.489029,-4,-4,0,2,0,1,-1,-4
15:43:23.489029,-1,-2,-3,-5,-10,-1,0,0
15:43:23.496027,-1,2,-1,-2,6,3,-3,-3
15:43:23.497023,-3,-6,-5,11,0,-5,-2,-3
15:43:23.511015,-3,-1,-1,7,0,-2,-1,-1
15:43:23.519014,-2,-2,0,1,0,1,4,1
15:43:23.534001,-1,-3,-2,18,1,6,-3,-3
15:43:23.540999,-2,0,1,9,-10,-7,-2,2
15:43:23.555989,2,-1,-1,0,1,0,-2,-1
15:43:23.563984,-5,-2,0,2,7,-2,-1,-1
15:43:23.570979,2,0,3,2,-2,3,0,2
15:43:23.578975,-1,-2,-4,-8,0,1,1,2
15:43:23.593966,-1,-1,-1,6,9,0,-1,-1
15:43:23.600962,-2,0,1,-5,-9,0,0,2
15:43:23.615952,2,0,0,-3,5,-2,-1,1
15:43:23.623948,-2,0,0,-21,-14,0,1,3
15:43:23.638938,1,-2,2,23,6,1,-3,-1
15:43:23.638938,1,-1,0,-12,-22,-3,1,2
15:43:23.653929,-4,-4,-2,3,6,-2,-4,-4
15:43:23.660926,0,-1,2,-7,-3,5,2,1
15:43:23.675918,0,-1,3,7,4,-2,1,0
15:43:23.690906,0,-2,-1,-5,5,1,-1,-1
15:43:23.698901,1,0,-2,3,-19,-6,2,0
15:43:23.698901,-2,-1,0,-20,-1,2,-3,-3
15:43:23.713891,-3,-2,0,-5,-8,-6,-1,0
15:43:23.720886,-2,-1,-1,12,3,-1,-2,-2
15:43:23.735878,-1,-4,-2,-2,-4,-2,-3,-3
15:43:23.743873,-2,-3,-3,-12,3,-1,-1,2
15:43:23.758863,-1,1,2,3,0,-1,-3,1
15:43:23.759861,3,3,2,7,4,2,3,2
15:43:23.773854,-4,-2,-1,-2,0,-2,-5,-1
15:43:23.780856,2,2,-1,3,10,3,3,2
15:43:23.795839,1,-2,0,2,-20,-3,-2,0
15:43:23.803836,-1,0,1,6,12,10,2,3
15:43:23.818826,0,-3,0,3,3,0,-1,-1
15:43:23.819823,2,2,-1,-28,-15,-2,3,2
15:43:23.833818,-2,-2,-3,4,2,0,-3,-1
15:43:23.840811,-6,-3,-4,2,-3,-1,0,0
15:43:23.855802,0,-4,-4,-6,-12,-6,-4,-2
15:43:23.863799,-4,-3,-2,-1,11,4,0,-1
15:43:23.878789,-1,2,-1,-6,-2,1,-1,-4
15:43:23.879789,1,3,2,12,15,7,5,4
15:43:23.893779,0,-3,-1,-21,-12,-2,-3,-3
15:43:23.900774,-2,-1,-1,0,0,1,-2,-1
15:43:23.915764,-2,0,-1,0,-2,0,0,-2
15:43:23.923761,-1,-4,0,0,-2,-3,-2,-3
15:43:23.938752,5,1,4,1,-8,0,2,1
15:43:23.939751,-3,0,0,-20,4,-2,-2,0
15:43:23.953742,-3,-4,-4,14,10,1,-2,-4
15:43:23.961738,1,0,2,6,-12,0,1,0
15:43:23.976729,-2,-3,-3,4,4,-2,-2,-4
15:43:23.983724,0,0,-2,-32,-10,-1,1,-1
15:43:23.998715,-4,-2,-1,3,-2,-1,0,-2
15:43:23.999718,-1,2,-2,-3,0,5,1,2
15:43:24.013706,1,2,0,-2,-11,-5,-1,3
15:43:24.021698,-2,2,0,6,6,0,0,2
15:43:24.036692,-2,1,-1,-31,-9,8,-1,-1
15:43:24.043686,-1,-2,1,4,14,0,1,1
15:43:24.058678,-1,1,-3,9,-5,-1,-1,-4
15:43:24.059674,-3,0,-2,-5,-8,-1,0,-2
15:43:24.073668,-4,2,-1,-2,3,2,0,3
15:43:24.080660,-2,-3,0,-5,-9,-2,0,-1
15:43:24.096651,1,-1,1,6,10,4,1,1
15:43:24.111645,-1,-2,-3,-8,-11,-4,-1,-4
15:43:24.118640,0,2,1,-1,-3,-1,2,0
15:43:24.119640,1,-1,0,0,0,-1,0,2
15:43:24.133631,-2,-1,0,29,1,0,-1,0
15:43:24.141635,-1,-1,-2,1,2,3,3,0
15:43:24.156614,-6,-2,-3,-4,-11,-1,1,-1
15:43:24.163612,-4,-4,-2,-5,0,0,-1,-1
15:43:24.178603,2,2,4,7,4,1,4,6
15:43:24.179602,-4,-3,0,-1,0,0,0,3
15:43:24.193594,-4,-2,-7,-10,-1,2,-3,-3
15:43:24.201589,-2,-1,-3,-7,-11,-4,-1,-2
15:43:24.216580,0,0,1,31,3,0,-3,0
15:43:24.223575,3,4,2,-10,5,6,6,6
15:43:24.238566,-3,1,2,0,4,2,0,-2
15:43:24.239562,-1,0,0,1,-2,-1,0,0
15:43:24.253556,4,1,5,9,10,5,4,4
15:43:24.261552,-1,-3,2,-2,4,0,1,-3
15:43:24.283539,-1,-1,1,-1,2,2,-1,-2
15:43:24.284536,0,-3,0,-3,-1,0,-3,1
15:43:24.298529,2,-1,2,5,-3,-5,-4,-4
15:43:24.299526,0,-3,-2,-50,-30,-4,-1,-1
15:43:24.313516,0,-3,-4,7,0,-6,-1,1
15:43:24.328510,-3,0,0,10,7,2,2,2
15:43:24.336505,-2,0,-2,-5,-3,-1,-1,-2
15:43:24.343503,0,4,1,3,0,4,6,4
15:43:24.358492,2,0,-1,-3,-21,-2,-1,-2
15:43:24.359491,-2,-2,2,4,-3,-4,2,4
15:43:24.373482,-2,-3,0,22,7,0,-3,0
15:43:24.381477,-1,1,-3,-6,-3,3,3,5
15:43:24.396468,-2,2,1,-7,1,0,1,0
15:43:24.403463,2,-1,0,4,3,3,4,2
15:43:24.418455,2,-1,0,-38,-6,1,2,3
15:43:24.419451,1,-2,2,15,15,1,4,1
15:43:24.441437,-3,-1,-2,-4,-3,-2,-2,-2
15:43:24.441437,1,-2,-1,5,16,6,0,4
15:43:24.456431,0,-2,0,18,7,2,-2,3
15:43:24.463426,-3,-2,1,-2,-16,-7,0,-3
15:43:24.478417,-2,2,2,7,11,4,0,3
15:43:24.479416,2,1,0,21,7,3,3,-1
15:43:24.494407,2,-1,-1,10,-7,-1,-4,-3
15:43:24.501403,-2,-4,1,6,2,1,0,-1
15:43:24.516394,-1,-3,-2,5,4,-3,0,2
15:43:24.523388,-3,-2,-1,24,16,-7,0,1
15:43:24.539377,2,3,0,3,-4,-4,0,0
15:43:24.546375,-5,-3,-4,-1,-7,-4,-1,-1
15:43:24.568361,1,0,1,24,5,2,0,1
15:43:24.569358,0,1,0,-6,-8,0,0,0
15:43:24.576356,-1,-2,1,3,0,-2,-1,-3
15:43:24.584349,-4,1,0,-2,-1,-1,-1,2
15:43:24.599343,0,1,-1,5,4,0,2,0
15:43:24.606335,-4,-5,-2,-4,25,4,1,-2
15:43:24.621328,0,0,-1,5,10,-3,-3,-2
15:43:24.621328,0,-2,-4,-24,-11,-4,-1,-1
15:43:24.643315,-1,-1,-3,9,8,4,-1,0
15:43:24.644312,0,1,0,3,8,1,1,3
15:43:24.659306,-2,-4,-2,-4,-4,-1,-1,-5
15:43:24.674297,4,-1,1,1,3,-3,3,10
15:43:24.681291,0,1,-2,0,0,-1,0,-2
15:43:24.681291,1,2,3,3,6,3,2,1
15:43:24.696282,1,3,0,-26,-20,-3,-2,-1
15:43:24.703274,3,1,0,18,-1,0,2,4
15:43:24.719268,-1,-1,-4,-10,-55,-3,-2,-5
15:43:24.726264,1,1,3,2,9,-1,2,0
15:43:24.741254,0,5,3,1,0,2,3,0
15:43:24.742254,0,-1,0,1,-1,-1,3,2
15:43:24.756244,0,-2,-3,-5,2,-1,0,-2
15:43:24.764240,0,4,0,-28,-12,-1,1,1
15:43:24.779231,-3,-4,-2,11,10,0,-3,0
15:43:24.786227,-2,-1,-1,3,6,5,0,-1
15:43:24.801217,0,1,3,27,6,-2,0,1
15:43:24.802215,1,0,-2,0,2,0,-3,0
15:43:24.816208,0,1,0,3,4,2,-1,1
