timestamp,emg1,emg2,emg3,emg4,emg5,emg6,emg7,emg8
19:00:18.420414,-1,3,3,-1,-3,-4,-6,-6
19:00:18.420414,0,0,-1,-3,-1,2,2,1
19:00:18.426410,-2,-3,0,0,0,-4,-6,-6
19:00:18.443398,-1,0,3,1,-1,-2,-6,-5
19:00:18.446396,-3,-1,0,-4,-3,0,0,0
19:00:18.463385,-5,-1,-3,-1,0,0,-6,-3
19:00:18.464384,-1,-1,0,1,-4,-3,-1,2
19:00:18.478377,-1,0,0,1,1,-1,0,-1
19:00:18.486370,-2,-2,1,0,-1,1,0,-2
19:00:18.501361,-1,-1,-2,3,0,-3,0,-1
19:00:18.501361,-4,-3,3,-1,-2,-1,-3,-9
19:00:18.531341,1,-4,0,-1,-1,1,-1,-2
19:00:18.531341,-4,-2,-2,0,0,-3,-8,-7
19:00:18.538342,2,-1,0,-1,0,1,0,0
19:00:18.546332,-6,2,-1,1,-4,-1,-1,1
19:00:18.561327,3,0,2,3,1,6,-4,1
19:00:18.562323,2,1,-2,-3,1,-2,-2,4
19:00:18.584309,1,1,0,-1,-1,1,4,2
19:00:18.584309,0,0,-1,-2,-1,-1,-2,-1
19:00:18.599303,-2,1,0,2,-1,-1,15,-1
19:00:18.606299,-3,-1,0,1,-2,-3,-10,-3
19:00:18.621289,0,-1,-3,-3,-2,0,4,4
19:00:18.622288,-1,-2,-1,-1,1,-1,-2,-9
19:00:18.644272,1,-1,0,0,4,4,1,-1
19:00:18.644272,1,-1,-2,-2,-3,-1,-2,-5
19:00:18.659266,-1,0,0,-1,-1,0,0,-3
19:00:18.666260,-1,-3,-3,-3,0,-2,-3,-2
19:00:18.681252,-4,-2,-4,1,1,1,-13,-4
19:00:18.682249,-3,1,-2,-2,2,-4,2,2
19:00:18.704236,-1,0,-2,-2,0,1,1,-1
19:00:18.704236,-2,-1,1,1,-1,-4,0,-4
19:00:18.726221,-3,3,-1,-3,-1,0,18,1
19:00:18.727220,-5,-1,0,-2,-3,-1,-3,-1
19:00:18.741212,-5,0,-4,-3,-4,1,7,5
19:00:18.742213,-3,0,2,1,-2,-2,-3,-9
19:00:18.764198,-5,1,-1,-3,-4,-5,-4,-7
19:00:18.764198,0,1,2,-1,-2,-2,-2,0
19:00:18.786187,1,2,-2,-3,-2,1,-15,-4
19:00:18.787184,-4,-2,-3,-3,-2,-1,-1,-6
19:00:18.801174,-7,-1,-4,-1,-4,1,0,-2
19:00:18.802175,-4,-2,2,-1,-1,-5,-8,-3
19:00:18.824161,1,-2,0,1,-2,1,1,5
19:00:18.824161,-6,-6,-1,0,0,-2,-1,-4
19:00:18.846150,0,0,-2,-1,-1,0,-8,-1
19:00:18.847147,-1,-1,2,1,2,1,11,5
19:00:18.861140,2,0,-1,-1,-2,1,5,19
19:00:18.862140,-5,2,-1,0,-2,-1,-3,1
19:00:18.884132,-1,-1,-1,-1,2,1,-3,-1
19:00:18.884132,-4,-1,-1,-2,-3,-1,-3,-5
19:00:18.906109,-1,0,0,-1,-3,-2,-4,1
19:00:18.907112,0,-4,-2,0,0,-1,0,0
19:00:18.921103,-2,-1,1,-2,-2,-1,-13,-2
19:00:18.922100,-2,-2,-2,-3,-4,-1,-1,-3
19:00:18.944088,-3,-1,-1,-1,6,0,4,-2
19:00:18.945087,-4,1,2,-3,-4,0,-6,-1
19:00:18.966075,-5,-2,-1,1,-3,0,12,3
19:00:18.967072,0,0,1,-1,-1,-1,-1,-3
19:00:18.981066,-3,-1,0,0,-3,0,2,-1
19:00:18.982062,-3,0,-3,-1,-2,-3,-4,-7
19:00:19.004052,0,0,0,-2,1,0,2,11
19:00:19.004052,-3,-3,-3,-1,-5,-5,-4,-9
19:00:19.026038,-4,-4,-2,-3,-2,-5,-3,-2
19:00:19.027037,-1,-4,-1,-2,-2,-1,-11,3
19:00:19.041026,-1,-2,-3,0,-3,-2,0,-1
19:00:19.056020,0,1,-1,-2,-1,-3,-1,1
19:00:19.064011,0,-1,-1,0,0,0,-12,6
19:00:19.064011,-2,-4,-2,-3,-2,-1,4,0
19:00:19.086001,-1,1,1,0,-1,1,-1,0
19:00:19.087000,2,0,-1,-1,-4,0,2,0
19:00:19.101991,-3,-1,0,-1,-3,2,-2,-2
19:00:19.108983,-5,-5,0,-1,-2,-2,-4,-6
19:00:19.123977,-4,-1,2,2,0,-5,-3,5
19:00:19.124974,-6,-2,-1,-1,-3,-5,-10,-11
19:00:19.145960,5,1,1,1,1,4,5,8
19:00:19.146960,-3,-3,-4,-2,0,-1,-5,-5
19:00:19.161955,0,-2,-1,1,-3,0,-3,-2
19:00:19.168950,-5,-5,0,0,0,-1,-3,0
19:00:19.183940,-1,2,-1,-1,1,-1,-3,0
19:00:19.184942,-5,-5,-1,0,0,0,3,0
19:00:19.206923,-6,0,0,0,-3,-1,8,1
19:00:19.206923,1,-2,-1,2,-1,0,-10,-3
19:00:19.221917,-3,-2,-2,-2,-1,0,5,-1
19:00:19.228912,2,3,2,0,0,-2,-4,0
19:00:19.243903,-6,-2,-5,0,-2,-2,0,5
19:00:19.244900,1,-1,-1,-2,-3,0,2,-4
19:00:19.266885,-3,-1,-2,-3,0,-3,-4,-4
19:00:19.266885,-4,-4,-2,-1,0,-5,-3,-5
19:00:19.281880,-3,2,2,-3,1,1,-3,-6
19:00:19.288875,4,2,-1,-1,3,-1,0,4
19:00:19.304862,1,2,1,2,1,0,-1,-4
19:00:19.304862,-4,-3,1,3,-2,-3,-1,-1
19:00:19.326851,-2,-4,-6,1,-2,0,-12,-5
19:00:19.326851,-3,-2,0,1,0,-3,-1,-1
19:00:19.341840,-3,-2,1,-3,-3,-3,-7,-10
19:00:19.348838,1,1,3,-1,0,-6,-22,-3
19:00:19.363829,0,1,4,3,1,-4,1,1
19:00:19.364828,0,1,0,-2,-4,-1,1,-1
19:00:19.386813,-3,-4,-1,-1,-1,-2,-5,-3
19:00:19.386813,5,-4,0,0,2,-1,1,9
19:00:19.401802,-4,-2,0,-2,-2,-3,-6,-8
19:00:19.408797,3,2,1,-3,-3,-2,1,12
19:00:19.423793,-1,0,3,0,-3,-2,-4,-6
19:00:19.424788,2,3,0,-4,-1,-3,-2,-7
19:00:19.446776,-3,-4,-1,-2,3,1,1,-1
19:00:19.446776,-1,-2,0,0,-2,-2,-10,-4
19:00:19.461768,-3,-1,1,3,-2,0,1,-3
19:00:19.468763,-4,1,2,2,2,0,1,-2
19:00:19.483754,-5,-2,-6,-6,-3,-4,1,-3
19:00:19.484751,-1,0,-1,0,-1,-1,1,-1
19:00:19.513736,-2,0,1,-2,-2,-2,-5,-2
19:00:19.514734,0,-2,-1,-3,-1,-3,-1,2
19:00:19.521731,0,-2,0,-1,-4,0,-1,-1
19:00:19.528725,1,1,0,1,1,-2,-2,-4
19:00:19.543717,9,2,0,-1,0,-1,3,23
19:00:19.544714,0,-1,1,-2,-1,-4,-3,-1
19:00:19.566701,-7,-3,-2,-1,-2,0,-3,-4
19:00:19.566701,5,0,1,0,3,0,3,0
19:00:19.588689,-1,-1,-4,-3,-3,0,1,4
19:00:19.589688,-2,-1,-3,-1,1,-1,16,-1
19:00:19.603680,-1,1,0,-1,1,-3,-22,-6
19:00:19.604677,2,4,1,2,0,3,10,5
19:00:19.626663,2,0,-1,-2,-3,1,-2,-3
19:00:19.626663,1,-1,2,1,1,-2,0,-1
19:00:19.641656,0,0,-2,-2,-1,0,2,2
19:00:19.648652,-1,-1,-4,2,-1,0,1,1
19:00:19.663643,-1,0,0,0,-1,-2,-4,-7
19:00:19.664639,4,1,-3,0,0,0,4,11
19:00:19.693624,1,0,-1,-1,0,-3,2,3
19:00:19.694621,-3,-1,-1,1,0,1,13,-2
19:00:19.708612,0,-2,1,0,1,-1,1,-1
19:00:19.709614,-1,-4,-2,0,-1,-2,8,-1
19:00:19.723605,-1,0,1,-1,-3,-1,-4,-3
19:00:19.724603,-3,1,1,1,0,0,4,1
19:00:19.746588,5,4,-1,-2,-1,0,1,5
19:00:19.746588,-1,-2,-4,4,2,-4,-5,-1
19:00:19.768578,3,0,-4,-2,-4,-1,3,5
19:00:19.769577,-1,-2,-1,-2,-2,-2,-3,-1
19:00:19.783568,-1,-1,-4,-3,-3,0,0,0
19:00:19.784567,-1,-3,0,-1,-1,1,-2,-2
19:00:19.806554,-1,-3,0,-2,1,-3,0,9
19:00:19.807551,1,1,3,-2,-3,0,4,2
19:00:19.829539,-4,0,-2,-2,-1,-1,0,-5
19:00:19.829539,-3,-4,-2,0,-2,3,11,-4
19:00:19.843530,-1,0,0,0,1,0,-8,3
19:00:19.844531,-2,0,0,-3,-3,-2,1,-2
19:00:19.866517,-4,-1,-2,-1,-2,0,1,-3
19:00:19.867515,-4,-1,0,0,-4,1,-6,-8
19:00:19.888502,1,2,0,0,1,3,4,-1
19:00:19.889503,0,-3,-1,-3,-4,0,-1,1
19:00:19.903493,-1,0,-1,0,-3,-3,-3,-8
19:00:19.904493,-5,-1,0,2,-1,-5,-6,-3
19:00:19.926480,8,3,0,0,0,2,11,10
19:00:19.927479,-7,2,0,-1,-1,-1,-3,-5
19:00:19.948463,-3,-1,-1,-1,-1,-2,3,1
19:00:19.949463,-1,-1,-3,-5,-4,-5,-5,-4
19:00:19.964457,-5,-1,-2,0,-1,1,-14,-2
19:00:19.971452,2,-1,3,1,-1,0,3,0
19:00:19.986443,-2,-2,-3,-3,0,1,3,2
19:00:19.987442,-2,1,-2,1,-2,-4,3,6
19:00:20.009425,2,-2,-1,-3,1,-1,-5,-6
19:00:20.009425,-1,2,-1,-1,-3,0,2,1
19:00:20.024417,-3,2,-1,-2,-1,-1,-3,4
19:00:20.031415,0,-1,-2,-1,-2,-1,3,-2
19:00:20.046405,1,-1,-2,5,2,0,-2,0
19:00:20.047401,0,-1,-1,-2,-4,1,0,-2
19:00:20.069388,-5,3,-1,1,-1,-1,-1,-1
19:00:20.069388,-1,0,0,-2,2,-1,-17,-4
19:00:20.084382,0,1,-5,0,-3,-2,2,2
19:00:20.091377,-2,-2,-1,0,0,0,1,-3
19:00:20.106368,-1,4,0,-1,-3,0,-4,-1
19:00:20.107366,-1,-5,-3,0,-1,-2,-1,5
19:00:20.129352,0,0,-1,-1,0,-1,2,11
19:00:20.129352,-2,3,-1,-1,-4,-4,-24,-6
19:00:20.144347,0,-1,-2,-2,2,-1,0,-3
19:00:20.151337,-4,-1,-2,1,0,-2,-1,-1
19:00:20.166331,-1,-2,1,1,-2,-6,-2,-2
19:00:20.167327,0,-1,0,-2,0,0,-3,-3
19:00:20.189313,-1,1,1,-2,0,4,-1,0
19:00:20.189313,0,0,-1,-1,-1,1,1,1
19:00:20.204307,-2,-2,-4,-1,-1,-3,11,-1
19:00:20.211303,0,2,0,0,0,2,-3,6
19:00:20.234286,-1,-1,-1,4,3,3,6,0
19:00:20.234286,-4,-2,0,-1,2,1,-7,-16
19:00:20.249279,3,0,1,-1,0,4,6,15
19:00:20.249279,0,0,1,-1,1,-1,0,-1
19:00:20.264267,-1,-4,0,1,-1,1,0,-3
19:00:20.271266,-4,-2,0,0,-2,-3,-3,-6
19:00:20.286257,0,0,1,2,0,-2,0,2
19:00:20.287253,1,1,1,0,-2,-1,-2,0
19:00:20.309239,-3,-3,-2,-1,-1,-1,-2,-2
19:00:20.309239,0,-2,2,1,-1,-5,-1,-1
19:00:20.324233,-2,0,-3,1,0,1,-5,-1
19:00:20.339224,-4,-2,0,-2,-2,-4,-6,-13
19:00:20.346219,-1,0,-1,-4,1,-1,14,0
19:00:20.347216,3,2,3,-1,-1,0,6,13
19:00:20.369202,-3,-1,-1,1,2,4,7,1
19:00:20.370203,-1,0,3,0,-1,-1,2,-1
19:00:20.384196,-1,-2,0,-1,1,0,1,2
19:00:20.391190,-1,-2,-1,-4,0,-3,-5,-7
19:00:20.406182,2,4,0,-2,-1,0,-1,0
19:00:20.407181,-4,-4,-1,0,0,-3,-2,-2
19:00:20.429165,0,-2,2,0,0,1,-14,-2
19:00:20.429165,-2,0,0,-2,-1,-4,-1,-8
19:00:20.444158,8,4,1,0,2,-2,0,-2
19:00:20.451152,-3,-4,-3,0,-1,-3,-4,-5
19:00:20.466143,5,-3,4,3,3,-1,4,3
19:00:20.467142,0,0,-1,-5,-1,-1,-3,0
19:00:20.489128,-3,-1,0,0,0,0,-2,-3
19:00:20.489128,5,1,-4,-1,-2,3,1,1
19:00:20.504122,-7,-4,0,4,-4,0,-4,-4
19:00:20.511115,-2,1,-2,1,2,2,5,-2
19:00:20.526106,-2,-4,0,1,1,-4,0,-2
19:00:20.527108,-3,-2,0,-2,-4,-3,-1,-3
19:00:20.549093,-3,-1,1,-1,0,-1,-3,2
19:00:20.549093,-4,-1,0,-2,-3,1,0,-2
19:00:20.564084,-4,1,-3,-2,-5,-3,-21,-2
19:00:20.571077,-5,-2,-3,-1,-2,-2,-5,-8
19:00:20.586069,1,0,1,0,1,-4,5,5
19:00:20.587070,-4,-3,-2,-1,-2,-3,-5,-3
19:00:20.616049,3,-1,-4,-3,-3,-1,-2,-2
19:00:20.617051,-4,-1,-3,1,1,0,-2,-4
19:00:20.631040,-2,0,0,-1,1,1,-2,1
19:00:20.632040,0,1,1,0,0,1,3,0
19:00:20.646031,1,-1,-3,1,-3,-1,-2,-5
19:00:20.647030,-2,-1,-1,0,0,0,3,1
19:00:20.669019,0,-2,-1,-3,-2,-2,-1,-1
19:00:20.669019,-2,-1,-3,-2,1,-1,-1,-4
19:00:20.692002,-6,-6,-3,1,3,-2,-2,-3
19:00:20.692002,-2,1,1,-1,-3,0,-2,2
19:00:20.705994,2,2,0,2,6,-1,-1,0
19:00:20.706995,2,-2,-1,6,-1,-1,0,-1
19:00:20.728982,3,-1,2,3,25,4,-2,0
19:00:20.728982,0,2,5,-3,-34,-4,1,2
19:00:20.750968,-2,-4,-6,-4,0,0,-1,-2
19:00:20.751966,-1,-1,-1,8,7,-1,-2,2
19:00:20.766958,-4,-3,-4,-4,-10,-3,-1,0
19:00:20.766958,2,3,-2,8,8,-2,-1,1
19:00:20.788945,-7,-9,-10,-28,-11,0,-2,-4
19:00:20.788945,-2,1,6,25,41,5,0,4
19:00:20.811929,0,-1,-4,-17,-23,-12,-1,-1
19:00:20.811929,2,7,20,37,26,12,3,1
19:00:20.825919,-1,-4,-20,-40,-26,-15,2,-2
19:00:20.826920,-6,-1,5,27,46,14,-2,-2
19:00:20.848906,5,13,-4,-24,-99,-28,3,3
19:00:20.848906,-16,-20,-14,12,-5,-14,-11,-12
19:00:20.870890,10,33,43,24,96,59,10,3
19:00:20.871890,-1,-22,-13,52,127,-1,-7,2
19:00:20.893878,2,4,-19,-18,-128,6,3,1
19:00:20.893878,0,-3,3,-43,-128,-40,-4,-4
19:00:20.908868,-1,11,7,-110,-128,42,0,-2
19:00:20.908868,-1,-31,-82,-10,127,-17,-9,-5
19:00:20.930862,-10,-25,-41,-128,-128,-28,2,-4
19:00:20.931854,-10,-67,-128,-128,-128,-128,-22,-12
19:00:20.953841,-58,-111,-33,127,-128,-105,-63,-23
19:00:20.953841,17,86,-1,-128,53,13,20,20
19:00:20.968831,-14,-82,-56,127,-128,-78,-2,-12
19:00:20.968831,16,41,42,127,47,85,19,14
19:00:20.983820,23,-40,-128,107,127,-63,6,9
19:00:20.983820,-77,-18,91,13,127,50,-37,-48
19:00:21.013806,30,5,-68,-128,-5,-60,13,21
19:00:21.014802,1,8,18,127,99,127,4,0
19:00:21.036789,17,-4,11,91,127,-14,19,15
19:00:21.037789,13,20,5,78,127,-128,2,1
19:00:21.051779,-16,18,63,-128,-128,-128,-28,-5
19:00:21.051779,-26,-82,-108,-77,127,127,-13,-34
19:00:21.073767,-1,127,127,-128,-128,64,-14,-9
19:00:21.074765,-48,-103,-128,-128,-128,-128,-63,-33
19:00:21.088759,-47,-91,-128,-128,-96,127,7,-27
19:00:21.089755,-26,-51,-20,11,-128,127,-12,-9
19:00:21.111742,34,43,30,-88,127,127,6,20
19:00:21.111742,-63,-113,-80,46,-128,-66,-8,-21
19:00:21.133731,44,58,101,127,127,-1,14,26
19:00:21.134727,23,1,-20,-23,127,-128,-28,13
19:00:21.148722,6,47,87,-128,-128,-84,8,9
19:00:21.149721,60,127,99,-128,127,-128,-6,8
19:00:21.171705,-18,70,127,127,73,-43,1,-11
19:00:21.172704,-53,-101,-29,26,127,127,40,-21
19:00:21.193693,52,93,50,73,114,127,18,7
19:00:21.194693,28,71,59,-128,127,-18,7,11
19:00:21.208682,-7,-24,45,127,127,75,9,-5
19:00:21.209682,-19,-50,-113,-90,42,-128,-18,-12
19:00:21.231668,-9,-47,-47,-128,-128,-128,-17,-6
19:00:21.231668,-70,-128,-87,33,127,127,-6,-41
19:00:21.253657,22,50,28,-128,-128,-128,-7,17
19:00:21.254656,-20,-7,25,-7,-128,-85,-16,-22
19:00:21.268647,-36,-89,-108,-119,44,127,-13,-10
19:00:21.269646,-12,-34,-62,-35,-128,-128,-25,-6
19:00:21.291630,-1,28,-39,69,127,118,-1,-8
19:00:21.292631,-27,-19,5,101,-26,105,12,-14
19:00:21.306624,33,89,29,-128,22,-1,-5,12
19:00:21.313617,-13,-43,-52,29,-90,-91,-12,0
19:00:21.329607,58,127,118,96,127,14,13,21
19:00:21.329607,-20,-39,-28,-52,-128,-92,-16,-10
19:00:21.351598,25,105,85,-5,-128,-96,-14,0
19:00:21.351598,-17,-36,-12,35,73,-1,0,2
19:00:21.374581,7,34,16,-128,-15,-128,0,1
19:00:21.374581,-27,-29,7,71,127,96,4,-16
19:00:21.388570,-32,-71,-66,59,127,127,3,-13
19:00:21.389569,9,30,53,50,127,-43,-4,0
19:00:21.411556,7,30,16,-128,-128,-50,0,7
19:00:21.412555,-6,5,-1,-75,29,-58,-5,-4
19:00:21.441539,6,11,59,127,127,127,7,-1
19:00:21.442537,-3,-5,-9,-27,-128,-112,-6,3
19:00:21.456530,-1,4,30,110,127,127,9,-3
19:00:21.457527,7,7,-21,-8,103,15,-1,3
19:00:21.471525,11,23,15,36,105,-68,3,10
19:00:21.471525,1,-3,-29,-120,-37,-23,-4,1
19:00:21.494506,-18,-40,-50,-74,-105,-61,-9,-5
19:00:21.494506,-13,-35,-23,18,46,50,-5,-11
19:00:21.508496,-5,-17,22,127,127,14,5,-5
19:00:21.509495,7,23,34,-46,-40,44,2,0
19:00:21.531485,-2,12,17,41,127,84,-1,-10
19:00:21.531485,7,9,6,-2,127,127,15,5
19:00:21.554470,0,-17,-28,20,112,127,17,4
19:00:21.554470,8,38,9,-60,-128,-75,-4,3
19:00:21.568459,-2,3,9,-27,-128,-63,-6,-2
19:00:21.569458,-52,-92,-101,20,-12,27,-21,-34
19:00:21.591447,13,47,55,-24,0,95,3,7
19:00:21.592444,0,-8,-22,-128,-128,-117,-8,2
19:00:21.614435,-25,-54,-22,84,127,114,-2,-11
19:00:21.614435,10,21,9,-31,127,-34,0,3
19:00:21.629424,-6,-20,-36,-34,-95,-23,-7,-2
19:00:21.629424,1,10,10,-19,-40,-20,-5,1
19:00:21.651410,-20,-30,-10,37,97,17,-8,-15
19:00:21.652406,-2,-8,-14,-34,-27,58,4,-1
19:00:21.674392,3,8,-10,-95,-128,19,0,-1
19:00:21.674392,-12,-40,-36,-19,127,127,6,-3
19:00:21.689384,6,19,13,-19,-113,-52,-3,2
19:00:21.689384,-1,7,-12,-35,16,9,-1,-1
19:00:21.719365,-18,-15,26,108,127,24,-5,-12
19:00:21.719365,0,0,9,60,-3,-5,1,1
19:00:21.734359,2,-3,-2,-1,-29,-17,-1,2
19:00:21.734359,1,1,-2,-20,0,2,-2,3
19:00:21.756345,1,0,-4,-26,-22,-8,-1,-2
19:00:21.757341,0,0,-1,-1,1,-2,-3,-1
19:00:21.771336,1,-5,0,-4,-1,2,-1,-2
19:00:21.772332,-12,-4,-3,0,-3,-1,8,-14
19:00:21.794319,-1,16,9,7,9,-2,-56,-1
19:00:21.794319,16,-26,-11,-7,-2,5,34,-3
19:00:21.809309,-113,3,4,-5,9,-18,-68,-30
19:00:21.809309,127,15,-5,-8,3,33,-128,127
19:00:21.831298,-128,127,-18,-42,-63,-108,127,-128
19:00:21.832296,108,61,-11,-5,-3,47,-128,59
19:00:21.854281,127,51,26,32,10,14,-112,-128
19:00:21.854281,-128,-112,-39,-23,-36,-41,-128,2
19:00:21.869271,99,72,-14,-11,-12,-57,-101,111
19:00:21.869271,-72,-10,13,5,16,14,64,-51
19:00:21.891261,-1,13,-9,-14,-4,-17,-21,-13
19:00:21.892258,-9,5,3,16,-43,-3,-36,5
19:00:21.914245,12,4,-23,-128,-37,-2,-28,5
19:00:21.914245,-23,100,54,127,127,125,-2,-3
19:00:21.929235,68,30,-3,51,127,72,21,28
19:00:21.929235,-64,6,18,-40,-128,-101,-17,-33
19:00:21.951224,127,69,2,-72,-128,64,62,127
19:00:21.952220,-105,-6,-37,43,67,-79,14,-57
19:00:21.974206,-62,0,8,-26,-77,-16,-48,-58
19:00:21.974206,-59,20,-67,-128,-128,-128,78,-58
19:00:21.989197,-21,-64,13,67,90,94,-128,127
19:00:21.989197,-60,-9,-25,-128,-28,-18,46,-128
19:00:22.012185,-128,-42,-16,-5,65,15,50,13
19:00:22.012185,-57,-47,-13,-23,34,-120,-84,-75
19:00:22.041168,18,16,10,-21,27,-5,-128,36
19:00:22.042165,-89,-55,-14,-16,11,-4,-99,-128
19:00:22.049162,-51,-29,-24,30,-27,6,25,8
19:00:22.049162,13,48,-24,6,-4,-30,-2,-73
19:00:22.071148,88,32,50,118,98,50,127,79
19:00:22.072149,-20,-17,-3,-52,4,-27,55,-29
19:00:22.094132,18,9,-2,16,-128,27,19,55
19:00:22.094132,-3,-5,-8,-6,-128,-67,-21,-19
19:00:22.109123,-29,-32,-19,4,-48,-29,-14,-10
19:00:22.109123,78,12,17,7,-78,-8,-38,11
19:00:22.131111,51,23,14,33,12,64,39,63
19:00:22.132112,49,14,-17,36,127,10,-82,-16
19:00:22.154096,14,16,41,127,53,14,24,6
19:00:22.154096,1,5,10,49,-58,18,-15,3
19:00:22.169089,-5,-4,-11,-5,-128,-51,-32,-22
19:00:22.170088,-32,-25,-3,-5,33,-17,-64,-7
19:00:22.191072,39,25,6,42,113,-26,-9,6
19:00:22.192072,-65,-18,-19,69,17,2,-22,-73
19:00:22.214061,-6,1,4,-16,24,-33,-46,-22
19:00:22.215060,-14,2,4,3,-128,-42,3,-9
19:00:22.229049,-20,-18,-29,-13,-45,-23,-10,-13
19:00:22.230051,-1,14,-2,-45,-12,35,14,12
19:00:22.251035,72,38,6,99,70,7,-50,121
19:00:22.252035,56,15,2,-15,-42,-31,-28,4
19:00:22.274023,21,31,10,-12,-63,-11,29,21
19:00:22.275020,-20,-18,-6,6,-118,-10,2,-6
19:00:22.289015,-16,-13,-4,12,-117,-10,-9,-36
19:00:22.297010,-15,-31,-3,12,127,16,85,25
19:00:22.311998,55,33,12,9,95,12,43,54
19:00:22.311998,11,-2,-5,-26,-11,-1,15,7
19:00:22.333987,-23,-2,4,-44,-61,-39,-23,-37
19:00:22.334986,-10,-8,2,20,-1,2,49,15
19:00:22.356970,14,13,4,-47,-25,-1,17,10
19:00:22.356970,-6,-17,-10,14,74,10,-4,-5
19:00:22.371961,-17,-12,-2,-14,-111,-10,8,-2
19:00:22.371961,-6,1,5,8,-45,14,28,70
19:00:22.393950,-6,-8,-1,7,-60,4,-1,-17
19:00:22.394949,37,28,-4,-46,65,0,-3,31
19:00:22.416936,-6,-14,1,50,-44,10,5,12
19:00:22.416936,-5,-1,-6,6,27,13,2,-4
19:00:22.431926,5,-7,3,17,10,3,-8,-13
19:00:22.431926,-6,-2,2,3,-70,18,63,9
19:00:22.453912,30,11,3,22,60,14,10,10
19:00:22.453912,-32,-9,6,-14,-15,-12,-14,-35
19:00:22.476895,-9,-1,-4,-6,0,-10,-17,-12
19:00:22.476895,-1,0,4,10,-70,30,50,34
19:00:22.491886,-6,-3,-15,10,-4,-11,-10,-15
19:00:22.491886,-4,-10,-4,-1,46,-15,12,-4
19:00:22.513875,7,4,2,-4,3,-1,-6,0
19:00:22.514871,12,4,4,-14,-18,10,30,57
19:00:22.536858,-14,-1,-1,-1,11,-4,8,-32
19:00:22.536858,-10,-1,2,12,3,2,-84,-22
19:00:22.551848,-1,-7,-6,1,11,-10,-5,-6
19:00:22.551848,-7,-3,8,20,18,-11,-1,-15
19:00:22.573838,9,3,-2,-28,-5,5,11,-8
19:00:22.574836,38,16,9,-8,14,4,3,14
19:00:22.596824,10,-2,-5,-1,32,9,-2,-11
19:00:22.597820,14,0,-15,2,36,-31,-37,-18
19:00:22.611811,4,8,13,7,0,9,-14,9
19:00:22.611811,11,9,-4,36,82,28,25,23
19:00:22.633801,-7,-2,1,12,-16,-1,-13,-15
19:00:22.634799,-6,-6,-6,-27,40,12,-11,-3
19:00:22.663782,3,-3,-1,-24,-99,-8,6,20
19:00:22.664778,-12,-5,-16,-7,7,-12,-7,0
19:00:22.670777,-9,-4,-2,-11,1,0,-3,-10
19:00:22.671779,-6,-6,-4,8,-19,-11,-16,-10
19:00:22.693763,-3,-2,-5,-17,-16,0,-3,-8
19:00:22.694763,-5,-6,-4,-23,5,9,-20,6
19:00:22.716747,-8,-9,-7,-1,15,-2,2,-7
19:00:22.716747,-5,-3,-4,-25,0,-4,-7,-16
19:00:22.731737,5,5,4,-25,-64,-5,-12,7
19:00:22.731737,-24,-15,-7,-41,4,3,0,-17
19:00:22.753726,5,-8,-3,3,-7,-22,-23,-15
19:00:22.754723,-7,-7,-2,-8,11,-3,0,-11
19:00:22.776709,4,0,-1,-3,-22,-5,-3,-1
19:00:22.777710,-5,4,4,5,20,3,-1,-11
19:00:22.791700,6,1,2,-29,-43,-6,0,1
19:00:22.791700,-4,-7,-1,0,-45,-17,1,-5
19:00:22.821681,1,1,0,20,47,6,3,20
19:00:22.821681,-10,-10,-5,-6,-9,-2,-11,-3
19:00:22.836674,-1,-3,-1,3,-4,-2,1,-3
19:00:22.836674,0,-2,-3,-4,-1,-4,3,-1
19:00:22.851663,6,3,-2,0,-5,-4,0,3
19:00:22.851663,1,0,-1,-12,-11,3,0,0
19:00:22.873652,0,-1,0,5,17,4,-1,0
19:00:22.874649,0,1,0,-23,-30,-5,-1,3
19:00:22.896635,-4,0,-1,2,9,-1,-4,-8
19:00:22.897636,-1,-3,-3,-6,0,5,-10,-8
19:00:22.911629,-13,-9,-3,-5,-8,-8,-2,-1
19:00:22.918621,-11,-3,-1,-2,-2,1,1,-8
19:00:22.933614,-5,1,0,5,2,6,5,0
19:00:22.934614,-3,-3,-1,-6,-2,-4,4,-3
19:00:22.956600,1,-3,-2,-14,-62,-11,-11,5
19:00:22.956600,-5,-5,-4,-29,54,2,-15,0
19:00:22.978586,-1,1,0,-1,12,5,0,7
19:00:22.979583,2,2,-1,-7,40,2,4,-1
19:00:22.993576,-5,-2,1,0,6,2,-1,-1
19:00:22.994574,-3,0,1,0,0,-4,10,-11
19:00:23.016563,14,10,2,0,-2,1,5,12
19:00:23.017562,-12,-2,1,12,7,-9,8,-15
19:00:23.039548,3,-2,1,5,24,7,-2,1
19:00:23.039548,-1,-2,-3,-5,-6,1,-2,0
19:00:23.053537,-1,1,4,2,0,-4,1,2
19:00:23.054537,0,-3,0,8,-1,3,0,-7
19:00:23.076527,-1,-2,0,-1,-1,-3,-2,-2
19:00:23.077522,-4,-6,-5,-4,-3,-4,-7,-17
19:00:23.091517,5,4,-1,3,1,7,10,4
19:00:23.099510,5,1,-2,-5,-4,-4,2,5
19:00:23.114501,-7,-1,2,-14,0,4,-26,-11
19:00:23.114501,-3,0,1,-2,-9,8,12,8
19:00:23.136489,-3,0,-4,-4,13,-5,-10,-13
19:00:23.137490,5,3,0,0,-1,-1,4,6
19:00:23.151479,4,4,2,-9,-30,-5,-5,-4
19:00:23.159472,2,-2,-1,0,5,1,-4,-5
19:00:23.174465,1,5,2,-1,-2,1,1,-3
19:00:23.174465,-4,1,-1,1,-1,0,10,-7
19:00:23.196451,-2,6,3,1,3,0,-4,-14
19:00:23.197451,3,1,2,17,3,-1,0,-1
19:00:23.211442,-3,-1,-2,-2,5,-2,-21,-4
19:00:23.219434,-5,-1,-2,6,7,5,20,2
19:00:23.234425,-6,-4,-1,1,4,-5,-6,-4
19:00:23.234425,-1,0,1,0,7,-3,-1,-1
19:00:23.257411,1,3,4,3,1,3,5,6
19:00:23.257411,3,-4,-1,-3,-2,-1,-3,4
19:00:23.271405,-4,-1,-5,-3,-7,-7,-5,-5
19:00:23.279397,4,0,-2,0,1,-1,17,19
19:00:23.294390,-2,-4,-1,-3,-3,0,5,-11
19:00:23.294390,10,3,1,5,7,4,14,12
19:00:23.316377,-2,-4,0,-3,-1,-1,0,-4
19:00:23.317376,-1,-2,-2,-2,-3,-2,1,-2
19:00:23.331368,-6,-1,-3,-4,-4,-3,-1,-1
19:00:23.339364,0,-1,-3,0,-1,-4,-2,-1
19:00:23.353354,-9,-2,0,0,-2,-2,-3,-6
19:00:23.354352,-1,0,-2,-1,-3,-2,-4,-5
19:00:23.376340,-2,-3,-2,-4,-5,-3,-7,-4
19:00:23.377338,-5,0,1,0,3,-2,0,-5
19:00:23.399324,-3,0,-2,-2,-2,-2,1,-1
19:00:23.399324,0,1,-1,-3,-1,-1,-4,-6
19:00:23.414315,4,0,0,0,-1,-3,15,17
19:00:23.414315,-8,-1,-4,-3,-2,0,-6,-13
19:00:23.436300,-3,-1,-1,1,6,0,-4,-8
19:00:23.437301,-4,-1,-1,-1,-3,1,5,0
19:00:23.459286,-1,1,1,1,-1,-6,-6,-3
19:00:23.459286,-3,-2,-1,0,-4,3,5,3
19:00:23.474277,-4,-2,2,-1,-1,-1,-6,-8
19:00:23.475276,-5,-3,1,-2,-1,-4,-3,7
19:00:23.496269,-5,-4,-2,-2,-2,0,-3,-5
19:00:23.497265,-9,-9,-4,0,-3,-7,-6,-4
19:00:23.519251,-5,0,-1,-3,-5,-9,-3,-5
19:00:23.519251,-4,1,-3,-3,-2,-1,-3,-4
19:00:23.534240,-2,-3,-2,-2,0,-3,1,-4
19:00:23.534240,0,-2,-3,-1,-3,0,2,0
19:00:23.556229,1,1,3,4,2,-3,-5,-10
19:00:23.557225,-1,-3,-2,-2,-1,-5,-6,-8
19:00:23.579212,-1,-1,0,-1,1,2,3,9
19:00:23.580214,-2,-1,-1,3,0,-2,1,-5
19:00:23.594202,4,1,0,2,2,2,4,4
19:00:23.594202,-5,-2,0,-4,-3,0,-10,-4
19:00:23.616191,-2,-3,-2,-1,1,-3,3,-3
19:00:23.617190,-2,-3,-1,-1,-1,-3,-3,-4
19:00:23.639178,-10,-1,-3,-2,-4,1,9,-4
19:00:23.639178,3,1,-1,2,-2,-1,7,8
19:00:23.654165,-1,-1,1,1,0,0,-1,-7
19:00:23.655164,-1,-4,-6,0,-3,-1,-3,0
19:00:23.676154,-4,-3,-1,-4,-2,-6,8,2
19:00:23.677153,-3,2,3,6,9,9,3,3
19:00:23.699137,1,2,-2,0,-4,-3,2,5
19:00:23.699137,-1,1,-1,0,-5,-4,-15,-8
19:00:23.714131,-6,-2,-3,-3,1,3,2,-3
19:00:23.714131,-3,1,-6,-2,-2,1,5,3
19:00:23.736117,1,4,3,5,5,3,3,6
19:00:23.737116,-5,0,-2,-3,-4,-6,8,3
19:00:23.759103,-1,-3,2,-2,-1,-1,-4,-5
19:00:23.766096,-3,-3,-2,-7,-3,-2,-6,-9
19:00:23.774093,-5,-3,-3,2,-1,1,-8,2
19:00:23.781087,-3,1,-1,-4,0,-2,-5,-3
19:00:23.796079,2,1,-3,1,-2,1,-12,-6
19:00:23.797079,3,-1,-5,2,2,3,9,8
19:00:23.819065,-1,2,-3,-3,0,3,2,-7
19:00:23.819065,-2,0,-5,0,-2,-1,2,2
19:00:23.834056,0,1,0,0,-3,-2,1,1
19:00:23.841050,-4,-3,-1,-5,-4,-2,8,-8
19:00:23.856041,1,-4,0,-1,1,5,-13,-3
19:00:23.857039,-1,-1,1,1,1,0,-10,9
19:00:23.879028,1,-1,0,0,1,0,7,-2
19:00:23.880025,-3,-3,-1,-2,-1,1,13,-4
19:00:23.894018,-6,1,-1,0,2,3,3,5
19:00:23.901012,0,-1,2,4,2,3,4,7
19:00:23.924000,-5,1,-2,0,-1,-5,-4,-5
19:00:23.924000,0,2,1,-1,-4,-2,1,7
19:00:23.938991,-3,-2,-4,1,-3,1,-6,-4
19:00:23.939988,-4,-2,-3,-1,-1,-1,0,-1
19:00:23.953982,-5,-1,0,-1,-2,1,-1,-3
19:00:23.961974,17,9,0,1,1,1,3,5
19:00:23.976968,-2,-2,1,-2,-1,0,2,2
19:00:23.977968,-1,-2,1,0,3,2,0,-1
19:00:23.998954,1,0,-3,1,1,2,1,1
19:00:23.998954,-4,2,-1,-1,1,0,1,-2
19:00:24.013942,2,-1,-3,-5,0,0,-2,1
19:00:24.020940,-1,-1,-1,0,0,-4,-3,-1
19:00:24.035929,-3,1,0,1,2,4,1,0
19:00:24.036927,-5,-3,-3,-4,1,3,4,-4
19:00:24.058913,0,1,-3,-2,-1,-1,0,-2
19:00:24.059913,1,-1,1,2,-1,0,1,0
19:00:24.073907,-2,-1,0,0,-2,1,1,3
19:00:24.081903,7,5,0,1,2,4,1,3
19:00:24.095891,-4,1,5,2,-1,-4,-26,-5
19:00:24.096892,-4,-3,1,2,1,-6,9,3
19:00:24.118880,-1,-3,-3,0,-2,-3,-1,-4
19:00:24.119880,-1,-2,-2,-2,-5,-2,-11,-3
19:00:24.133870,0,2,2,-2,-1,2,5,-2
19:00:24.141862,-2,0,2,0,1,-1,-6,-2
19:00:24.156853,-4,-5,-2,-1,-4,-1,2,-1
19:00:24.156853,0,1,-1,-1,-1,-2,1,-1
19:00:24.178843,-3,1,-2,-4,-1,-1,11,-4
19:00:24.179841,-2,1,3,1,-3,-1,-5,-1
19:00:24.193832,-6,-4,-6,-5,-4,-6,-1,-2
19:00:24.201826,5,2,2,1,5,3,10,20
19:00:24.216819,-1,0,-3,-2,-3,-3,-3,-4
19:00:24.216819,-3,-1,-2,0,-3,-5,-11,-10
19:00:24.238805,-2,1,0,-2,-2,5,3,-2
19:00:24.239804,-2,0,-2,-2,-2,-1,-1,3
19:00:24.253794,-4,-1,0,-3,-1,0,2,-3
19:00:24.261788,-3,2,2,0,0,-2,-3,2
19:00:24.276781,0,-2,1,-1,-2,3,5,-4
19:00:24.276781,0,0,-2,2,-1,0,6,1
19:00:24.298768,2,-4,-1,0,-1,1,-3,9
19:00:24.299766,-6,-4,0,2,2,-1,0,-7
19:00:24.313759,-4,-4,-2,1,1,-1,0,1
19:00:24.321754,-3,-4,-1,-2,-2,-3,-4,0
19:00:24.336742,9,5,3,2,0,3,7,20
19:00:24.336742,-1,-2,0,1,5,3,15,1
19:00:24.358731,-3,-2,0,-1,0,-2,-7,-6
19:00:24.359730,9,2,1,0,0,-1,-1,-1
19:00:24.374719,-5,0,0,1,-1,3,0,-1
19:00:24.381716,-2,0,-2,-3,-1,-3,-5,-1
19:00:24.396706,3,4,-3,0,4,5,5,3
19:00:24.396706,-1,-4,1,-1,-1,-3,-4,-5
19:00:24.419690,-1,3,0,2,0,-4,-2,-4
19:00:24.419690,2,-1,0,-2,1,5,10,7
19:00:24.441677,-4,-2,-3,-1,-3,0,-4,-1
19:00:24.441677,6,3,0,0,0,-1,-2,1
19:00:24.456667,2,2,1,0,-4,1,-1,-1
19:00:24.456667,-1,0,-3,-2,-3,-2,-2,-5
19:00:24.478656,0,-1,1,-3,3,-2,-2,0
19:00:24.479653,-1,0,-2,-3,1,-3,-12,-2
19:00:24.501644,-1,-2,1,-2,-3,-1,1,-4
19:00:24.502640,-1,0,1,0,-3,1,-1,0
19:00:24.516635,-2,-1,-2,0,1,-1,-3,-2
19:00:24.517633,-1,-3,-1,-1,-1,-2,-2,-3
19:00:24.546617,-3,-3,-3,-1,-5,-1,-3,-1
19:00:24.546617,-4,-2,0,-2,-3,-1,-1,-2
19:00:24.561606,-1,-4,-2,-3,-5,-1,-1,-3
19:00:24.562601,-1,-3,0,0,-3,-2,-4,-6
19:00:24.576596,1,3,-1,0,2,2,0,-8
19:00:24.577593,1,-2,-2,-1,-1,2,1,4
19:00:24.598581,-1,1,0,-1,0,-1,-4,1
19:00:24.599579,-6,-4,-1,1,-2,-1,3,-5
19:00:24.621568,1,-2,-1,-1,-3,-4,1,5
19:00:24.621568,-5,-3,0,-1,-1,-3,-1,0
19:00:24.636559,0,-6,-4,-3,-3,-1,-1,4
19:00:24.636559,6,3,4,1,0,2,6,9
19:00:24.658542,-4,-4,-1,-1,0,1,17,-1
19:00:24.659544,-5,0,-1,-1,0,-2,-7,-5
19:00:24.681527,4,4,-2,-1,-3,-1,-17,-5
19:00:24.681527,-3,-1,0,-1,-3,-3,2,-1
19:00:24.696522,0,-2,-1,0,2,2,0,5
19:00:24.704514,-6,-3,-2,0,-1,-3,0,-2
19:00:24.718504,-1,0,-1,-1,-1,-1,-7,-5
19:00:24.719507,3,2,-1,-1,-1,-1,-2,0
19:00:24.741490,-3,-6,-4,-1,-1,-1,-1,4
19:00:24.742493,-1,-3,2,0,0,-1,0,1
19:00:24.756484,1,-1,-2,-3,-5,-2,-2,-3
19:00:24.764480,3,-1,3,2,1,0,-6,1
19:00:24.779467,-1,-1,0,-3,-4,-1,-1,0
19:00:24.779467,1,2,-1,2,1,4,-17,-7
19:00:24.801456,-3,0,0,1,1,-1,3,0
19:00:24.802456,-9,-12,-3,-3,-1,-5,-2,-3
19:00:24.816447,-3,-1,-2,-4,-2,-5,-2,-2
19:00:24.824439,-3,-1,-2,-2,-1,0,-2,-4
19:00:24.846429,-2,-4,0,0,-4,-9,-1,-1
19:00:24.847427,-3,-5,-4,-2,0,-2,-4,-2
19:00:24.861419,0,-2,2,-1,1,-1,2,-2
19:00:24.862415,-8,-3,-5,-2,-5,-3,1,-3
19:00:24.876410,1,3,1,-1,2,5,13,2
19:00:24.884402,2,-3,-1,0,-2,-1,-6,-2
19:00:24.898395,-6,2,-2,-2,-3,-5,10,3
19:00:24.899393,1,2,2,1,2,1,-1,1
19:00:24.921379,-5,-3,-1,-4,-3,1,0,-7
19:00:24.922378,6,1,-2,-2,-1,-1,-2,-1
19:00:24.936370,2,2,1,0,2,-4,-3,1
19:00:24.951360,-1,2,1,0,3,1,-1,0
19:00:24.959355,4,-2,0,-2,-1,1,-5,-6
19:00:24.959355,-7,-5,0,-1,1,0,1,-1
19:00:24.981345,-3,2,0,1,-2,-2,-17,-4
19:00:24.982345,-2,-1,-1,-2,0,1,4,2
19:00:24.996335,-3,0,1,-1,-3,-7,-6,-11
19:00:25.004328,-1,-1,-1,2,1,0,-2,-6
19:00:25.026317,5,2,2,-2,0,-1,3,10
19:00:25.027315,-2,-1,-2,0,-2,-3,-8,-6
19:00:25.041307,-2,1,-2,-2,-1,-3,-4,-2
19:00:25.042305,1,1,1,-1,0,-3,-1,-3
19:00:25.056298,-1,-3,0,0,-1,-4,0,1
19:00:25.064294,1,-3,-2,-3,-2,2,-25,-4
19:00:25.079281,3,2,0,3,2,-3,9,7
19:00:25.079281,0,-3,-1,-3,-2,-1,1,2
19:00:25.101270,-11,-6,0,0,1,-3,0,-4
19:00:25.102269,2,4,1,2,4,0,1,6
19:00:25.116261,1,-3,0,-1,0,-3,-7,-11
19:00:25.124257,5,6,-2,-2,-2,-5,-1,-3
19:00:25.139247,0,0,2,-2,-1,-5,-4,-1
19:00:25.139247,0,-1,0,0,-2,0,1,14
19:00:25.169226,-6,2,0,-1,-2,-1,11,-3
19:00:25.169226,-1,-3,-1,0,-1,0,-20,-7
19:00:25.176223,0,2,-1,0,-1,-4,0,0
19:00:25.184216,0,3,3,0,0,-3,2,1
19:00:25.199208,2,2,-2,-1,0,2,-2,3
19:00:25.199208,-7,-3,1,0,-3,-1,-5,0
19:00:25.221196,3,-1,1,-2,-4,-1,-8,10
19:00:25.222196,-5,-1,-2,-2,-3,-3,-1,-5
19:00:25.236186,0,-3,-1,-1,-2,-1,-1,-4
19:00:25.244182,2,0,-1,0,-4,1,8,19
19:00:25.259169,0,-3,-2,1,-3,-1,5,-3
19:00:25.259169,4,1,2,2,0,2,-16,2
19:00:25.281159,-12,-7,0,0,-2,0,-4,-6
19:00:25.282156,-2,-5,-4,-1,-1,-1,-3,-2
19:00:25.304141,-4,-3,0,0,0,1,-2,-4
19:00:25.305141,-3,2,1,0,-3,-1,-1,-1
19:00:25.319132,-2,0,-2,-3,-3,-3,-3,0
19:00:25.319132,-2,-3,0,-4,-1,-2,-3,-1
19:00:25.342118,-1,-1,-4,-1,0,1,1,2
19:00:25.342118,0,-1,2,-1,-1,1,-4,0
19:00:25.364107,3,2,-1,2,2,2,3,8
19:00:25.365104,-4,-2,-1,-2,-1,2,3,0
19:00:25.379098,13,7,0,3,3,1,-2,3
19:00:25.380098,12,3,0,1,1,-1,2,6
19:00:25.401082,-1,-2,-2,-2,-2,-2,-23,-10
19:00:25.402084,1,-3,0,0,-4,-4,6,-1
19:00:25.424070,-2,1,-1,1,2,-2,-2,-3
19:00:25.425068,-4,-2,-2,1,3,0,-3,-2
19:00:25.439058,-5,-3,-2,-2,-1,-1,3,2
19:00:25.439058,6,0,-1,-3,-1,4,-3,-3
19:00:25.461045,-2,0,1,-4,-2,5,7,3
19:00:25.462044,-5,-1,-1,0,1,-1,-1,-1
19:00:25.484030,0,3,0,0,1,-4,-3,-4
19:00:25.484030,-1,-1,0,0,-3,-6,-26,-6
19:00:25.499021,3,-3,2,-5,0,4,17,23
19:00:25.499021,-3,-4,-2,-1,0,-3,-3,-7
19:00:25.521007,-1,-3,-1,0,7,-2,0,2
19:00:25.522007,-2,3,0,1,1,-3,-5,-5
19:00:25.543996,-1,0,1,-1,-2,-2,-14,-2
19:00:25.544993,4,-3,-3,0,-2,-2,0,4
19:00:25.558986,5,1,-2,-2,1,0,-4,-5
19:00:25.559986,-4,0,-1,1,-1,-1,2,3
19:00:25.580970,10,3,4,4,6,2,2,12
19:00:25.581970,-5,-4,0,-3,-3,-1,-34,-8
19:00:25.603959,-1,2,-2,0,1,1,5,1
19:00:25.604955,-2,0,0,4,1,-2,1,1
19:00:25.618947,0,0,-3,0,-4,1,0,-2
19:00:25.618947,-1,2,1,0,-1,1,3,-5
19:00:25.641932,1,-3,-2,1,0,2,11,26
19:00:25.641932,-4,-1,0,2,1,1,-1,-1
19:00:25.663922,-4,-1,-1,-1,-1,-4,-15,-2
19:00:25.664921,-3,-2,-3,0,-2,-2,-2,2
19:00:25.678921,-6,0,0,0,-4,-1,-5,-6
19:00:25.686908,-4,-2,2,1,0,-3,9,-1
19:00:25.700896,2,2,0,3,0,9,15,6
19:00:25.701898,2,1,0,5,3,-4,4,2
19:00:25.723884,0,-2,-2,1,0,-1,-3,0
19:00:25.724881,-1,1,-2,-2,0,-3,-2,-4
19:00:25.738872,1,-1,-3,-1,-3,-4,-8,-1
19:00:25.746868,4,0,-1,3,0,2,6,5
19:00:25.760858,-1,-1,-3,-4,1,1,-2,-1
19:00:25.761860,3,-2,1,-3,0,-3,-4,-6
19:00:25.783847,8,4,-1,-4,-2,-2,1,15
19:00:25.784850,-3,-4,-5,-3,1,-1,-10,-3
19:00:25.798837,-1,1,-2,1,1,2,13,3
19:00:25.806833,0,-4,-1,-5,-4,-1,-5,-1
19:00:25.820824,1,0,-1,1,-2,-3,-1,-3
19:00:25.821820,1,2,3,0,4,6,4,1
19:00:25.843809,-1,1,-2,-3,0,0,-2,-3
19:00:25.844809,1,0,4,1,0,5,6,5
19:00:25.859798,1,2,1,-1,-3,-3,-7,6
19:00:25.866795,-3,1,1,-3,2,-1,-1,-7
19:00:25.888782,0,3,2,1,3,-3,-1,-4
19:00:25.889782,0,-3,-2,-4,-4,-2,-19,7
19:00:25.903773,-1,-4,-5,-3,-2,1,4,-1
19:00:25.904769,-4,-2,0,-4,-3,-1,2,-2
19:00:25.918760,-1,0,-1,0,-1,0,-3,-2
19:00:25.926759,-5,-3,-2,-1,-5,-2,-5,-1
19:00:25.941748,-3,-2,0,-1,-3,-4,-3,-1
19:00:25.941748,5,1,2,1,2,1,3,6
19:00:25.963733,-1,-1,-4,-1,0,3,-5,-7
19:00:25.964732,-3,-2,-2,0,-1,-6,7,-11
19:00:25.978726,6,3,4,0,0,1,7,3
19:00:25.986722,-3,-2,-3,-3,-2,2,-13,-3
19:00:26.001709,7,-1,-1,-2,-2,-2,1,1
19:00:26.001709,3,-1,1,-2,-1,-2,18,4
19:00:26.023698,-3,-1,-1,-4,-4,-2,-3,-5
19:00:26.024694,-2,-1,-4,-1,-1,-3,-2,-3
19:00:26.038686,2,1,-3,0,0,-4,-3,-2
19:00:26.046683,-7,-8,-4,-2,-7,-5,-4,-3
19:00:26.061674,-3,1,0,-7,-3,-1,-3,-5
19:00:26.061674,0,-1,1,-1,-1,5,15,14
19:00:26.083661,-3,0,-2,-2,-3,-5,-6,-5
19:00:26.084659,-1,1,4,1,0,-5,-1,0
19:00:26.098650,0,-1,0,-4,-1,-1,-7,0
19:00:26.106643,1,-1,2,0,-6,-2,3,3
19:00:26.128633,1,-5,-3,-1,0,2,-23,5
19:00:26.129629,-5,-2,-2,-2,0,-2,-3,-7
19:00:26.143620,-5,-3,-1,-2,-1,2,-2,-4
19:00:26.144620,9,0,-1,-2,-2,-2,2,9
19:00:26.159615,-3,-2,-4,-1,-2,1,0,0
19:00:26.166607,-4,-3,-3,-3,-3,-4,-8,-8
19:00:26.181597,-5,-1,1,1,-2,-3,-1,-7
19:00:26.181597,-2,-3,-3,-1,0,-3,-2,-1
19:00:26.203587,-1,1,-2,-1,-2,3,-4,-6
19:00:26.204583,2,-2,0,-2,-2,-1,-3,0
19:00:26.226573,-2,-2,-3,-1,-6,-5,-2,1
19:00:26.227570,1,0,-2,-3,-1,1,-24,0
19:00:26.241561,3,0,0,-1,-4,1,5,6
19:00:26.242560,-8,-2,-2,0,-2,-4,-1,-2
19:00:26.263549,0,-4,-2,-2,1,0,6,-2
19:00:26.264546,-4,-1,0,-4,1,0,1,-3
19:00:26.286532,-3,-1,-2,-4,-3,-1,-1,-9
19:00:26.287533,1,-2,1,-1,-3,2,-3,-3
19:00:26.301526,-3,-1,-3,1,-2,0,-5,-7
19:00:26.301526,-3,-4,0,-1,-1,-3,0,3
19:00:26.323512,-1,0,0,-1,4,-4,-4,-1
19:00:26.324509,10,5,2,1,4,1,4,11
19:00:26.346498,-1,0,-1,2,1,2,6,-5
19:00:26.347498,-2,-3,-2,-2,-1,1,5,-6
19:00:26.361489,-3,4,3,1,-2,0,-4,-6
19:00:26.362487,-2,1,-2,-1,-1,-1,-1,-2
19:00:26.383473,4,4,1,1,5,8,7,3
19:00:26.384472,-3,1,-2,-2,-1,-8,-10,-4
19:00:26.406461,1,-1,1,2,1,-1,-5,-3
19:00:26.407457,2,-1,0,-4,-1,-1,-12,6
19:00:26.421452,-7,-2,-2,-1,-1,-4,-6,-5
19:00:26.422449,9,3,-2,-1,1,1,1,0
19:00:26.444435,-1,-2,-1,3,0,-2,3,2
19:00:26.444435,-1,-1,-2,-3,-4,-2,-15,1
19:00:26.466424,-7,-3,-1,0,-2,-1,0,-7
19:00:26.467420,1,-2,1,-1,-4,-2,2,-1
19:00:26.481415,2,-1,1,2,4,-3,-1,1
19:00:26.482411,1,-3,3,-1,-3,1,-3,-3
19:00:26.504397,6,2,0,1,-1,-4,-5,0
19:00:26.504397,0,-1,0,0,1,5,4,4
19:00:26.526387,7,-2,0,0,-1,-1,1,-2
19:00:26.527385,-8,-5,-2,-6,-5,-3,-1,-3
19:00:26.541377,-2,1,-3,-1,-4,-4,-2,-4
19:00:26.542374,8,0,2,0,2,6,8,5
19:00:26.564359,0,-1,-1,0,-2,-1,8,0
19:00:26.564359,3,-2,-2,-1,2,0,-1,-2
19:00:26.586350,1,-1,-1,-3,-2,-1,1,-2
19:00:26.587346,-3,-2,-2,0,1,-1,-1,-1
19:00:26.601340,-1,-4,-2,1,-1,-2,-1,-4
19:00:26.602336,8,2,1,1,0,-1,-3,0
19:00:26.623324,-2,1,-3,-1,3,2,-2,0
19:00:26.624323,7,-1,0,0,0,-3,5,1
19:00:26.646309,3,1,0,1,-1,2,-4,-4
19:00:26.647309,-5,-2,-3,-3,0,-1,1,-1
19:00:26.661300,-4,-2,0,-4,0,-1,-3,0
19:00:26.662300,7,0,-3,-2,-1,0,-1,1
19:00:26.684286,-4,-2,0,-1,-2,1,0,2
19:00:26.684286,2,0,4,2,0,-3,2,-1
19:00:26.706275,-7,-5,-4,-2,-3,-2,-10,-3
19:00:26.707274,1,3,-4,-3,-3,4,6,10
19:00:26.721266,-4,-2,-2,0,0,0,-1,-3
19:00:26.722262,-3,-3,-3,-6,-4,-3,-9,-8
19:00:26.744248,3,-2,-1,1,-3,1,-8,11
19:00:26.744248,-1,1,-2,-6,-3,-4,1,-6
19:00:26.766235,-1,0,0,2,1,1,-2,1
19:00:26.767234,-2,0,0,-3,-1,0,-3,1
19:00:26.781229,-6,-6,1,0,1,-3,-2,-2
19:00:26.782225,1,-3,1,2,-2,-2,4,5
19:00:26.804211,-1,-1,-4,1,0,-3,-4,-2
19:00:26.804211,-7,-3,-2,-2,-5,-6,8,-9
19:00:26.826197,3,1,0,-1,-3,2,3,2
19:00:26.827197,-2,-2,0,2,-1,0,0,-2
19:00:26.841191,-4,-1,2,-1,-3,-2,16,-1
19:00:26.842189,-1,1,-1,-1,-1,-2,-2,-4
19:00:26.864174,2,1,3,-1,-1,-3,5,6
19:00:26.864174,-3,1,-1,1,2,-2,-6,-2
19:00:26.886164,-9,-6,0,-1,-2,1,-2,-3
19:00:26.887160,-6,-5,-2,0,-3,-5,-4,-5
19:00:26.901154,-7,-1,-1,0,3,1,0,-3
19:00:26.902151,0,5,-1,4,2,0,2,4
19:00:26.924137,-3,-3,-1,-3,-3,-1,-4,-1
19:00:26.924137,1,0,-3,-2,0,3,5,2
19:00:26.946126,-2,-3,-1,-2,-2,-5,-1,-6
19:00:26.947125,6,4,1,3,3,0,6,14
19:00:26.961117,-1,0,-3,1,0,-2,-5,-3
19:00:26.962116,-6,-1,-2,1,-3,-3,-7,-10
19:00:26.984102,6,5,0,-3,1,2,7,3
19:00:26.984102,-6,-7,-2,-4,-1,-3,1,-4
19:00:27.006089,-3,-3,-2,-1,0,0,19,-2
19:00:27.007085,1,1,0,-1,0,4,2,0
19:00:27.022080,1,2,4,6,3,0,1,0
19:00:27.029075,-4,0,2,-2,-1,-2,-6,-4
19:00:27.044067,6,3,-1,0,0,2,4,1
19:00:27.045063,0,-1,-2,-1,-3,-2,0,0
19:00:27.066053,-3,-2,0,1,0,0,-10,0
19:00:27.067049,2,2,-1,0,-1,-1,-4,-2
19:00:27.089038,-1,-2,2,2,-2,-2,1,-3
19:00:27.090036,-3,-7,-2,-1,-3,-5,-1,0
19:00:27.104028,-3,-1,0,1,-2,1,0,-3
19:00:27.104028,-1,-1,0,-3,2,1,-2,0
19:00:27.126012,1,2,-2,-1,-2,1,-3,1
19:00:27.127011,1,0,-4,-3,-3,-2,3,8
19:00:27.149000,1,3,0,1,2,6,14,3
19:00:27.149000,-1,-1,2,-1,-2,0,0,-10
19:00:27.163991,2,1,-3,2,1,-4,-1,0
19:00:27.164991,5,2,1,0,0,0,-1,1
19:00:27.185975,-1,0,0,3,4,5,-9,0
19:00:27.186974,-4,-4,-2,-1,-2,-1,0,1
19:00:27.208963,-3,-4,-2,-2,-2,-3,-6,-3
19:00:27.209964,0,-1,0,2,1,-2,0,-2
19:00:27.230947,-4,-3,0,-1,-1,-4,-1,-5
19:00:27.231949,2,-4,0,2,-2,-7,-8,-4
19:00:27.246940,3,-1,-2,-2,0,5,8,6
19:00:27.253932,5,2,0,0,-2,-5,-8,-3
19:00:27.268928,1,0,2,3,4,3,4,5
19:00:27.269925,-6,-2,-5,-3,-1,-5,5,-15
19:00:27.283917,-5,-3,1,1,-1,0,0,0
19:00:27.284919,-3,0,-2,0,-3,-4,-1,-1
19:00:27.306900,-2,-2,-1,1,1,0,2,-3
19:00:27.306900,0,-1,-3,-2,-2,-3,-3,0
19:00:27.328889,1,-3,-5,-3,0,0,-10,-1
19:00:27.329886,5,0,-1,2,1,0,2,4
19:00:27.343879,-3,-2,-2,-1,-2,1,1,-3
19:00:27.344879,2,-3,-2,-1,-3,-1,-13,5
19:00:27.365863,-3,-2,-1,-1,-1,-6,-7,-3
19:00:27.366864,-3,2,0,5,1,5,3,-2
19:00:27.388851,0,0,-1,-4,-1,-1,5,-1
19:00:27.389851,-4,-2,-1,-1,-3,-1,-1,-4
19:00:27.403842,-2,0,-2,-2,0,-3,-2,-3
19:00:27.404840,1,3,3,0,5,1,1,-5
19:00:27.426825,-3,-1,2,0,0,1,0,0
19:00:27.426825,2,-4,0,-3,-1,-3,-5,-5
19:00:27.448814,5,5,1,1,4,3,5,0
19:00:27.449814,4,-1,-2,0,1,-2,-1,2
19:00:27.463805,-4,-5,0,-1,-1,0,-7,0
19:00:27.464803,-2,0,-1,0,0,-2,-5,-2
19:00:27.486790,-3,-1,-2,-1,3,2,4,0
19:00:27.486790,-1,-3,-1,0,-3,0,0,-1
19:00:27.508777,0,-2,-3,-2,-4,-3,2,-1
19:00:27.509773,0,-3,1,-2,-1,1,20,0
19:00:27.523768,-2,1,0,0,-3,-1,-10,-3
19:00:27.524766,-6,-3,-1,2,2,5,8,6
19:00:27.546750,3,1,3,0,0,1,-12,-3
19:00:27.546750,2,-5,-1,-2,-1,1,10,16
19:00:27.568740,-2,-4,-2,-2,2,-1,-2,-1
19:00:27.569737,1,-2,-2,0,0,-2,-2,1
19:00:27.583731,0,0,-1,0,-3,-3,-2,2
19:00:27.584727,0,0,-3,-1,4,-1,-2,-2
19:00:27.606714,3,2,0,0,0,0,-1,1
19:00:27.606714,-3,-2,-1,-1,-4,-3,-1,1
19:00:27.628703,-1,-2,-5,-1,-3,-2,-3,-1
19:00:27.629702,7,-1,-1,0,1,-1,-3,-1
19:00:27.643694,1,1,-2,0,-4,-1,2,0
19:00:27.644693,-3,-1,1,1,-2,-2,-15,2
19:00:27.666677,-2,0,1,-3,3,0,-9,3
19:00:27.666677,0,-1,0,0,-2,-3,1,-4
19:00:27.688665,-3,-2,-1,0,2,0,-1,-3
19:00:27.689662,-1,-2,-2,-2,-3,-4,-4,-3
19:00:27.703656,-4,1,0,2,4,2,2,-3
19:00:27.704655,1,-4,-2,-2,1,-2,-1,-2
19:00:27.726642,6,6,-4,0,-3,-3,1,0
19:00:27.726642,-3,0,1,-1,3,-1,0,-4
19:00:27.748628,-3,-3,-3,-2,-1,-2,-1,-1
19:00:27.749626,0,-3,1,-1,-1,0,7,8
19:00:27.771614,0,-6,-1,-3,-4,0,-9,1
19:00:27.772613,1,-1,0,-1,-5,0,-7,-10
19:00:27.786605,-2,-1,-1,3,-1,1,8,3
19:00:27.786605,0,-1,-1,-1,0,0,4,4
19:00:27.809590,5,2,1,4,-1,3,7,4
19:00:27.809590,6,0,-2,-2,-2,-7,-3,3
19:00:27.823582,-2,-3,0,3,2,2,1,2
19:00:27.824581,1,2,3,-5,0,-2,2,5
19:00:27.846568,-5,-2,-1,-1,-5,0,-2,-3
19:00:27.846568,4,-2,2,-3,-1,1,0,2
19:00:27.869554,-1,-4,-2,-1,-2,-2,-1,1
19:00:27.869554,-7,-2,-2,-2,-3,-5,-5,-7
19:00:27.883543,4,-1,-1,-1,-1,1,2,17
19:00:27.884544,4,1,-1,1,1,-3,10,8
19:00:27.906530,-6,1,2,-1,1,0,-6,-6
19:00:27.906530,4,2,-3,-2,0,2,4,4
19:00:27.928517,0,0,-3,0,-1,-2,1,0
19:00:27.929513,-1,0,0,1,-1,-2,0,-8
19:00:27.944507,3,-1,-4,-3,0,0,-7,3
19:00:27.951503,-3,-2,-3,-2,-3,-1,-3,-2
19:00:27.966494,-5,0,-2,-1,-1,0,-1,-5
19:00:27.967493,0,1,-1,-1,0,1,3,-5
19:00:27.988479,-5,-2,-3,-4,-1,-2,12,-4
19:00:27.989479,3,2,-3,1,-3,-6,10,1
19:00:28.011466,1,-6,-1,0,-1,0,-3,-9
19:00:28.012465,4,3,0,-2,-1,-2,-2,1
19:00:28.026456,-1,-1,-2,-1,-2,2,-1,-3
19:00:28.027454,-1,-1,1,-1,0,2,-1,0
19:00:28.049442,6,4,0,1,1,-8,-8,0
19:00:28.049442,-6,-2,-1,-1,1,1,-3,-4
19:00:28.071428,-5,1,0,-3,-3,-2,-3,-6
19:00:28.072428,-3,0,-2,-1,-3,-1,-3,2
19:00:28.094411,-1,-1,-1,-1,1,-1,0,-1
19:00:28.094411,-4,0,-2,-2,-3,-4,-2,-2
19:00:28.108403,6,1,-4,-3,1,1,4,-1
19:00:28.109402,1,-1,-1,0,-1,-1,16,2
19:00:28.131388,-4,-1,-4,0,-4,-2,-3,-2
19:00:28.132390,-6,-3,-1,-1,-1,-5,-6,-7
19:00:28.146382,-2,1,0,-3,0,0,9,-8
19:00:28.147380,4,3,0,-1,0,0,-2,6
19:00:28.169365,-4,-5,-1,-3,-1,0,-3,-8
19:00:28.169365,-1,-4,-2,1,-2,-1,-2,0
19:00:28.192351,0,1,-2,-3,0,-1,-1,-1
19:00:28.192351,1,-1,0,1,1,-2,4,6
19:00:28.206344,-1,-3,0,0,0,-1,-1,0
19:00:28.207342,-1,2,-2,3,-2,-7,-23,-6
19:00:28.229327,-2,0,1,1,-1,2,9,6
19:00:28.229327,-6,0,0,2,-2,1,-11,-1
19:00:28.251317,-4,-1,-2,-3,0,-4,-3,-2
19:00:28.252313,-5,-1,0,-4,-1,0,-4,-4
19:00:28.266307,12,3,0,1,1,1,9,20
19:00:28.267306,-4,1,0,1,0,-1,-2,-6
19:00:28.289290,0,-3,-2,-2,0,1,-1,-3
19:00:28.289290,-1,-3,-1,-2,-3,-1,-3,-3
19:00:28.311280,-7,-2,-1,0,-2,-2,-4,-3
19:00:28.312276,0,1,1,1,-1,0,1,2
19:00:28.334263,-1,-3,0,-1,-1,-1,-3,-3
19:00:28.334263,6,6,-2,0,-1,4,-4,17
19:00:28.349254,-4,-1,0,-1,-1,-3,-12,-7
19:00:28.349254,-2,2,-3,2,0,1,-1,-6
19:00:28.371242,-1,-3,-1,1,1,-2,-1,-1
19:00:28.372241,0,-1,-3,1,-1,1,1,0
19:00:28.386233,2,1,-1,-1,1,2,7,8
19:00:28.387233,-3,-2,-1,-2,1,1,3,-5
19:00:28.409217,-1,-4,-2,-2,0,-1,-1,-3
19:00:28.409217,-3,-3,-1,1,-3,-3,1,-4
