timestamp,emg1,emg2,emg3,emg4,emg5,emg6,emg7,emg8
15:36:12.484710,0,-1,0,-3,-2,-1,-1,-2
15:36:12.499701,-1,2,-2,-1,1,-2,1,-1
15:36:12.500700,-1,-4,-3,3,-1,-1,0,-3
15:36:12.514692,-1,-1,0,0,-4,-2,1,-2
15:36:12.522685,0,1,-3,-6,2,-2,0,-1
15:36:12.536687,-1,-3,1,19,0,-4,0,1
15:36:12.544672,-1,-2,-1,-4,-6,-1,-3,-1
15:36:12.559662,1,3,-4,3,-21,-5,2,0
15:36:12.566689,1,0,-2,-2,2,2,-6,-1
15:36:12.574656,0,-1,-2,-15,0,0,1,-2
15:36:12.581675,0,-1,-3,2,-4,-1,-1,-2
15:36:12.596674,0,0,-3,-5,-3,1,0,-2
15:36:12.604634,1,-1,-1,6,-3,-1,-1,-1
15:36:12.619625,2,-2,-1,-1,2,-3,-4,-2
15:36:12.619625,3,-2,0,10,6,1,-2,1
15:36:12.634615,-1,-1,0,1,-1,0,-1,-1
15:36:12.641616,0,1,0,1,1,-2,-6,0
15:36:12.656608,0,2,2,2,-5,0,1,0
15:36:12.664597,1,-3,-1,-5,4,2,-1,0
15:36:12.679587,1,-2,-3,0,-2,-3,-2,1
15:36:12.679587,-2,0,-3,4,5,1,-2,-3
15:36:12.701573,-1,0,-3,0,-1,-2,-1,2
15:36:12.702573,1,-2,0,-1,0,3,-1,5
15:36:12.716566,-2,1,0,0,-3,0,-5,-3
15:36:12.724560,-4,-1,-2,-4,0,-3,0,-1
15:36:12.739550,1,0,1,2,4,-1,0,-5
15:36:12.746547,2,-3,0,-12,-17,0,0,-1
15:36:12.761550,-3,-1,-2,9,3,1,-1,-2
15:36:12.762534,0,-1,0,5,0,3,-2,-1
15:36:12.776527,-4,0,-1,-1,-5,-6,-2,-1
15:36:12.784522,1,-3,-2,-4,-1,1,1,0
15:36:12.799513,1,-2,2,1,0,0,2,-1
15:36:12.806510,0,-1,2,-1,0,-4,0,-1
15:36:12.821501,-1,-2,-3,5,5,1,-3,1
15:36:12.822497,-1,-1,0,0,2,-3,-1,-1
15:36:12.836491,0,0,-2,-4,-3,0,0,0
15:36:12.844485,-2,-3,1,2,-2,0,1,0
15:36:12.859476,-1,1,0,27,13,1,0,1
15:36:12.867471,-1,-3,-2,3,-10,-5,-4,-2
15:36:12.881464,-1,-1,-1,2,5,-1,1,-2
15:36:12.882460,1,1,1,-1,0,0,-2,-1
15:36:12.897452,-3,-2,-1,2,3,1,0,3
15:36:12.904448,-4,-3,-4,-2,-3,-1,-2,-1
15:36:12.919439,-2,0,3,1,6,1,-2,-2
15:36:12.926434,-3,-4,-2,-1,0,-5,-3,-2
15:36:12.941427,0,1,0,-3,2,1,-2,0
15:36:12.942424,1,-4,-2,2,4,-2,-1,-1
15:36:12.957414,0,-1,1,1,-4,-1,-3,2
15:36:12.972405,0,1,-2,-3,-1,-1,-2,2
15:36:12.979402,-2,0,-3,1,4,2,-1,0
15:36:12.986399,0,-2,-3,-8,-8,-1,-1,-2
15:36:13.001389,2,3,3,4,14,6,1,3
15:36:13.002386,0,-1,-2,1,6,-3,-3,1
15:36:13.017378,-4,-1,-1,-3,-13,-6,-3,-2
15:36:13.024372,0,-1,-2,-4,1,-1,0,0
15:36:13.039364,-1,1,-1,0,-5,-1,2,0
15:36:13.047359,0,-2,2,0,0,2,0,3
15:36:13.062349,0,0,-1,0,6,0,1,-3
15:36:13.062349,-1,-3,-2,0,2,-2,1,-2
15:36:13.077339,-4,-4,0,-14,3,-1,-1,1
15:36:13.084335,3,1,2,10,10,1,1,4
15:36:13.099327,-2,-4,-3,-27,-15,-5,-3,-4
15:36:13.107336,2,1,-3,11,5,-1,0,-1
15:36:13.122312,-4,-1,2,-3,-4,-1,1,0
15:36:13.122312,-1,0,-1,0,1,-2,-2,-1
15:36:13.144299,1,3,-2,-1,0,0,-1,-3
15:36:13.145299,0,-2,-2,-1,4,0,0,-4
15:36:13.159289,-1,-1,-1,-1,1,0,-3,0
15:36:13.167285,-3,-4,0,-3,-3,0,2,1
15:36:13.182276,1,-3,-1,-2,-1,-4,-1,-2
15:36:13.182276,-4,-4,-2,4,7,-1,-1,-3
15:36:13.197266,-1,0,1,3,6,-1,-4,1
15:36:13.212257,-1,-2,-2,8,1,-4,-1,0
15:36:13.219256,-1,0,-1,-2,2,0,-4,2
15:36:13.227246,-3,-3,-2,2,7,3,-4,3
15:36:13.242239,-2,-3,-2,-6,-6,-4,1,-1
15:36:13.242239,0,-3,1,-1,4,-1,-3,-1
15:36:13.257229,0,-1,-1,11,8,-1,-1,-5
15:36:13.264226,1,0,-3,-20,-15,0,-2,-2
15:36:13.279214,1,1,2,-15,2,-1,3,1
15:36:13.287211,-1,-3,0,-1,-7,-1,-1,2
15:36:13.302203,1,1,0,16,6,-2,-3,-3
15:36:13.302203,-3,0,-1,-10,-19,-2,0,-1
15:36:13.317192,-2,-2,-2,10,9,-1,1,-4
15:36:13.324191,-1,-3,-4,-7,-1,2,-4,-1
15:36:13.339188,-2,-3,0,-5,-4,-2,1,0
15:36:13.347173,-4,0,-3,-4,2,-3,0,0
15:36:13.362164,-3,-3,-3,-1,-8,1,-3,-2
15:36:13.362164,-4,1,-3,0,4,3,3,-1
15:36:13.377154,2,3,1,-4,-6,-2,-3,-1
15:36:13.384175,-2,-3,1,5,8,2,1,0
15:36:13.399143,-3,-1,-1,-15,-19,-4,-5,0
15:36:13.407136,-1,-3,-4,8,9,-1,0,0
15:36:13.422127,-5,2,0,2,0,-2,-2,-6
15:36:13.422127,1,-2,0,1,-9,-1,-3,-1
15:36:13.437118,-1,-2,-1,2,8,0,0,0
15:36:13.445113,-1,-2,-1,-4,-3,0,0,-3
15:36:13.459107,2,-1,-3,-3,-4,-2,-1,0
15:36:13.467099,-1,1,0,-2,0,-1,-1,4
15:36:13.482090,3,0,2,1,-11,-4,-4,-3
15:36:13.482090,-2,-2,1,1,3,0,-2,-3
15:36:13.497080,-3,0,-5,-25,-11,2,-1,0
15:36:13.512071,1,2,0,1,0,-1,2,0
15:36:13.519069,-1,1,-2,3,6,1,2,-1
15:36:13.527062,0,-1,-1,0,-4,-1,-2,-1
15:36:13.542053,2,-2,-4,-6,3,-3,-4,1
15:36:13.543051,-4,-2,-3,-2,-1,-3,-1,-3
15:36:13.557043,-3,1,-3,-4,-6,-2,0,1
15:36:13.565038,-1,-1,1,-2,-14,1,-1,-1
15:36:13.579031,0,-2,0,0,9,2,1,-1
15:36:13.587025,-4,-1,0,8,3,0,2,-2
15:36:13.602015,1,0,-1,-32,-21,1,2,2
15:36:13.602015,0,0,3,11,12,1,-1,-2
15:36:13.617006,2,-3,-1,5,-2,2,-3,-1
15:36:13.624003,1,-3,-4,0,3,0,1,-4
15:36:13.638994,3,-1,1,-3,-3,1,0,1
15:36:13.646988,-3,1,-1,-1,2,-1,-1,-2
15:36:13.661978,-1,1,0,-4,-6,-1,0,-2
15:36:13.668976,-4,2,-1,3,8,-1,-1,0
15:36:13.683963,-1,-1,0,2,9,1,2,1
15:36:13.684962,1,-4,-3,1,1,1,1,-2
15:36:13.699957,-1,0,-4,-5,2,-1,-1,2
15:36:13.706952,0,3,0,-31,-6,0,0,2
15:36:13.721943,-3,-4,-2,6,2,-3,-2,-4
15:36:13.729938,1,-1,-2,-6,0,0,-3,-3
15:36:13.744926,-1,-1,-3,-26,-9,2,0,-2
15:36:13.744926,-1,-2,0,8,-13,-4,0,1
15:36:13.759920,-5,0,1,-6,-2,-3,0,1
15:36:13.766913,-4,-3,-1,3,1,0,-2,-1
15:36:13.781905,-2,-3,-1,-1,3,-2,0,-1
15:36:13.789903,0,-1,0,-28,-15,0,2,3
15:36:13.804888,-1,-1,-3,2,2,1,0,0
15:36:13.805891,-4,1,2,7,1,-3,-1,-2
15:36:13.819882,-4,-1,-3,-2,1,0,-2,-4
15:36:13.826877,-1,2,-1,-3,-8,-3,0,0
15:36:13.842868,-1,3,-3,-1,4,1,-2,-1
15:36:13.849863,-3,-1,-2,-1,8,0,-3,-1
15:36:13.864852,-1,-6,-2,-6,0,-1,-2,1
15:36:13.865854,3,-1,-2,25,5,-2,0,1
15:36:13.879845,-2,1,0,9,9,5,0,0
15:36:13.886837,-1,-3,-2,-5,-1,-4,0,-4
15:36:13.901831,0,-1,0,-3,-2,-1,-2,2
15:36:13.909826,-4,-2,-3,-4,-4,0,1,-1
15:36:13.924818,1,-1,0,5,-2,2,0,-1
15:36:13.925817,-2,0,1,7,5,-2,-2,-1
15:36:13.939808,-2,-5,-4,-2,2,-1,-1,-7
15:36:13.947803,-1,-1,-2,-2,-21,-6,2,2
15:36:13.961792,-1,0,0,-4,7,0,-3,1
15:36:13.969789,0,1,-1,4,11,6,0,0
15:36:13.984780,-1,0,2,6,3,-1,0,-2
15:36:13.984780,-1,0,-3,-18,-14,-1,-1,0
15:36:13.999771,-3,0,-4,-13,-7,0,0,-1
15:36:14.006763,3,3,3,4,9,-2,1,1
15:36:14.022757,-3,-3,-1,-11,-6,-1,2,-1
15:36:14.029751,-2,-1,-1,1,-5,-2,-2,-1
15:36:14.044743,-2,3,-4,-1,3,-2,0,-2
15:36:14.045739,1,-1,-3,0,-9,-2,-4,3
15:36:14.059733,-3,-4,1,2,5,0,-2,-2
15:36:14.067729,-3,-2,0,0,3,0,-3,-4
15:36:14.082719,0,1,-4,16,-10,-6,-4,1
15:36:14.089714,0,-2,1,4,-1,0,1,2
15:36:14.104706,0,1,1,5,5,-1,-4,0
15:36:14.112701,-2,0,-2,-3,0,1,1,-1
15:36:14.119696,-4,1,0,-11,-1,0,1,-4
15:36:14.127691,-3,-4,-3,0,0,-1,-1,-2
15:36:14.142682,0,-1,1,-11,0,-3,-2,0
15:36:14.149678,1,-2,2,0,-13,0,0,2
15:36:14.164668,2,-1,0,0,0,-5,-2,-2
15:36:14.165665,-2,0,-1,-5,-5,-2,-2,-5
15:36:14.179659,-3,-2,-3,-3,-1,-2,-2,-1
15:36:14.187654,2,-1,-2,10,0,-1,0,-1
15:36:14.202645,0,-1,0,4,0,-1,-2,-1
15:36:14.209640,0,0,-3,0,-10,-6,-2,1
15:36:14.224631,1,0,1,2,1,-2,-2,1
15:36:14.225628,-2,-3,-3,0,-1,0,0,-1
15:36:14.239622,-2,-1,0,-1,-2,2,-2,0
15:36:14.247617,-2,-3,-3,1,-1,-1,-1,-2
15:36:14.262608,0,-1,1,-2,-2,1,-1,-2
15:36:14.269603,1,-1,-1,-1,6,2,1,1
15:36:14.284594,1,3,-1,1,-1,2,-2,0
15:36:14.285591,-2,0,-2,-2,0,2,1,-2
15:36:14.299584,1,2,2,-1,2,-3,-1,-2
15:36:14.307580,3,2,1,-2,-2,-1,3,2
15:36:14.322571,-3,1,1,0,-3,-5,3,-1
15:36:14.329566,-1,-1,2,-2,-1,-3,-3,3
15:36:14.344554,-4,-1,1,0,-1,-1,0,1
15:36:14.345554,-1,-3,-1,-1,-3,-1,-3,0
15:36:14.367541,-1,2,1,-3,-3,-2,1,-1
15:36:14.367541,0,0,-2,2,-2,-3,-1,0
15:36:14.382531,-2,-2,-1,2,0,-1,0,-4
15:36:14.389528,-5,-3,2,-4,-2,-1,-1,-2
15:36:14.406518,-3,-3,0,-3,-1,-1,-1,-4
15:36:14.406518,-1,2,-1,-1,-2,0,0,-2
15:36:14.419510,0,0,0,-1,2,-3,-2,-1
15:36:14.427505,2,1,-1,1,6,-1,1,-3
15:36:14.442496,-1,0,-1,-1,-15,-3,-3,-2
15:36:14.449492,-3,-3,0,-1,4,3,-2,-3
15:36:14.465480,-3,0,3,2,2,0,3,-1
15:36:14.472477,4,2,1,1,5,1,2,4
15:36:14.479472,-1,0,0,-6,-4,0,0,-2
15:36:14.487468,-2,-3,-2,-2,-1,-4,-2,0
15:36:14.502459,-1,-1,-1,3,-2,-1,0,-3
15:36:14.509452,-5,-3,0,-3,2,-2,0,-1
15:36:14.524443,0,0,-1,1,0,-2,-1,3
15:36:14.532440,2,-2,-3,-5,-14,-4,-3,1
15:36:14.539434,3,1,-1,5,12,4,-2,1
15:36:14.547431,0,-2,0,-1,-1,-1,-2,-2
15:36:14.562422,2,0,-1,1,-2,2,-2,-2
15:36:14.577412,-1,-1,-1,0,-4,-2,0,-2
15:36:14.584408,-2,-2,0,0,0,-3,-1,1
15:36:14.592403,1,-1,-2,-14,-15,-3,-2,0
15:36:14.614388,-5,-4,-2,5,8,1,-3,-2
15:36:14.615386,3,2,-2,-3,-8,-2,1,0
15:36:14.622388,-3,-2,-1,-2,-4,2,-2,-2
15:36:14.629378,0,-2,0,-2,1,-2,0,-3
15:36:14.644368,-1,-3,-1,2,-1,1,0,0
15:36:14.652366,0,-2,-2,-1,-13,-2,0,1
15:36:14.667357,-3,-4,0,0,2,0,-1,-2
15:36:14.667357,-4,-1,-3,-2,-3,-1,-2,-4
15:36:14.682347,-2,-1,3,-1,2,1,-1,-3
15:36:14.690343,-3,-1,2,-1,-2,-2,-1,-2
15:36:14.705330,1,-1,9,9,3,1,-1,0
15:36:14.712329,-3,-4,-10,-17,5,-5,-2,-1
15:36:14.727317,-4,-3,-3,9,-7,-6,-6,-6
15:36:14.727317,-3,0,3,-17,-3,1,-3,-2
15:36:14.742310,0,0,5,2,1,3,-1,-1
15:36:14.750307,1,-3,-4,0,-3,-3,-1,3
15:36:14.765296,1,2,2,0,3,0,0,0
15:36:14.772292,-1,-1,-1,-5,0,2,2,-1
15:36:14.787283,0,0,-1,6,-10,-6,-1,-2
15:36:14.788284,0,0,-17,-1,5,3,1,4
15:36:14.802273,-1,-3,3,-15,-8,-1,-2,-2
15:36:14.810268,0,1,16,-6,-5,-1,0,-2
15:36:14.825261,-3,-5,-10,3,-1,-6,-2,1
15:36:14.832255,3,5,0,-8,-4,4,1,1
15:36:14.847245,-3,-3,7,8,-14,-4,-4,-2
15:36:14.848243,-1,-3,12,15,22,1,-1,0
15:36:14.862235,0,-4,-24,-3,-7,-5,-1,-3
15:36:14.870229,0,-6,-37,-74,26,6,4,1
15:36:14.884222,-6,-4,0,37,-6,-5,-3,-7
15:36:14.900212,3,9,18,-15,-9,-6,-5,-1
15:36:14.915200,4,-3,4,19,-86,1,6,8
15:36:14.915200,-2,-11,-28,86,-27,1,-6,-5
15:36:14.922199,-17,-19,-35,100,45,-4,-7,-16
15:36:14.930193,-40,-46,15,43,127,-37,-32,-37
15:36:14.945184,16,21,11,27,-28,10,14,11
15:36:14.952177,-2,-2,-21,64,13,9,-5,-3
15:36:14.967171,4,3,5,34,-128,-12,3,3
15:36:14.968171,49,108,127,127,127,127,41,35
15:36:14.982160,-15,-95,-83,-101,-128,-128,-13,5
15:36:14.989153,-34,-6,31,127,-83,-5,-21,-41
15:36:15.005147,26,25,-63,-128,127,4,4,18
15:36:15.012143,32,80,69,127,-128,35,16,15
15:36:15.027134,-111,-128,-128,-113,127,-50,-40,-50
15:36:15.028131,26,60,87,-51,-61,-56,7,10
15:36:15.042124,8,3,-29,18,127,53,7,2
15:36:15.050119,27,21,-11,77,-128,-12,17,26
15:36:15.065110,-7,-9,25,-56,-49,-1,-6,-1
15:36:15.072106,-26,-54,-37,-46,-30,-16,-12,-16
15:36:15.087096,31,61,46,67,-39,20,12,17
15:36:15.088096,-22,-39,0,95,-23,-35,-18,-12
15:36:15.102087,5,11,5,-28,-8,17,5,3
15:36:15.110080,18,22,60,88,46,23,14,20
15:36:15.125073,-10,-10,-13,-12,-3,13,9,-3
15:36:15.132068,18,21,1,-53,39,9,9,16
15:36:15.147059,-26,-41,-16,47,-3,-19,16,-25
15:36:15.148059,13,50,15,-108,-28,7,-26,-6
15:36:15.162049,-47,-89,-89,-63,-22,-29,-7,-18
15:36:15.170045,33,39,46,91,79,20,16,22
15:36:15.185036,11,34,43,-36,-31,39,11,0
15:36:15.192031,-3,7,6,127,114,1,-5,-9
15:36:15.207022,15,28,29,11,58,43,7,7
15:36:15.208018,-17,1,40,-49,-74,-40,-16,-17
15:36:15.222012,-3,-12,-74,-128,-128,-99,-9,-3
15:36:15.230007,-28,-94,-85,-98,10,-25,2,-1
15:36:15.244998,-12,-18,-26,120,127,55,6,0
15:36:15.251993,-40,-99,-103,16,-60,-54,-14,-8
15:36:15.266985,28,56,51,19,2,23,8,13
15:36:15.267984,-50,-85,-44,101,104,-10,-22,-21
15:36:15.281975,22,62,37,-128,-76,6,5,5
15:36:15.289973,-3,-19,-35,-128,-43,-36,0,-1
15:36:15.311957,-7,-7,-19,-41,-128,-27,-7,-9
15:36:15.312954,-11,-31,-58,-120,-119,-23,-10,-4
15:36:15.326948,-3,-6,-11,-63,-50,2,-3,-3
15:36:15.327946,-7,-2,-1,-19,-128,-58,-9,-6
15:36:15.341941,-17,-18,-24,-12,-69,6,-9,-12
15:36:15.349933,-16,-18,21,127,-23,0,-5,-9
15:36:15.364924,34,88,109,127,127,49,10,6
15:36:15.371918,-1,6,-15,19,-16,-2,4,1
15:36:15.386911,-33,-60,-48,-55,-85,-6,-8,-16
15:36:15.387909,2,8,-15,-74,-86,4,0,2
15:36:15.401899,-20,-39,-34,-74,64,38,-2,-8
15:36:15.409896,28,71,55,-17,33,-4,2,6
15:36:15.424887,-4,-5,3,-50,-104,-59,-4,-2
15:36:15.432879,-9,-37,-52,-25,-128,-42,-7,0
15:36:15.454868,8,12,1,-64,-2,19,0,0
15:36:15.454868,4,1,-3,-24,-85,8,-1,-3
15:36:15.461863,-8,-19,16,127,73,9,4,5
15:36:15.469859,9,12,17,-60,-120,-39,-2,3
15:36:15.484850,1,-3,4,54,127,50,4,4
15:36:15.491842,5,5,4,3,-128,-32,3,0
15:36:15.506836,-10,-10,-18,-76,-5,-5,-10,-15
15:36:15.507832,-1,2,-3,-96,-76,-13,-1,-1
15:36:15.522823,-5,-5,-2,11,63,1,-1,-1
15:36:15.529821,-1,2,-8,-75,-52,-9,-2,-1
15:36:15.544812,-2,-1,-2,35,6,10,2,1
15:36:15.552807,-7,-18,-43,-128,-128,-23,-8,-7
15:36:15.567798,4,9,8,-33,-73,0,1,1
15:36:15.574794,-17,-34,-36,-35,-47,-3,-5,-7
15:36:15.589785,12,17,24,11,46,9,4,6
15:36:15.589785,4,18,21,31,-5,8,3,3
15:36:15.604775,2,5,2,2,42,12,2,-2
15:36:15.612771,-8,-7,-9,35,4,-8,-4,-6
15:36:15.627758,8,6,25,117,127,11,6,7
15:36:15.634756,-29,-44,-35,18,18,-1,-9,-12
15:36:15.649747,5,8,26,127,127,29,3,1
15:36:15.650749,0,-10,-27,-111,-85,-12,-2,-1
15:36:15.664738,-22,-35,-21,43,18,5,-10,-14
15:36:15.672734,5,7,-2,-11,-8,0,1,-1
15:36:15.687724,11,12,-12,-55,127,24,1,2
15:36:15.694718,-20,-21,-13,-19,2,-3,-9,-14
15:36:15.709710,2,6,11,4,-77,-14,4,3
15:36:15.709710,3,6,9,75,68,0,-3,2
15:36:15.724701,10,12,-5,-50,-50,0,3,4
15:36:15.732695,3,2,6,26,-4,-2,0,0
15:36:15.747688,-25,-48,-62,-69,-51,-22,-5,-7
15:36:15.754682,-20,-29,6,16,-128,-41,-9,-14
15:36:15.769673,2,7,3,-23,-10,-2,4,0
15:36:15.769673,6,8,8,15,-15,-6,3,5
15:36:15.784663,-6,4,8,127,127,45,-3,-4
15:36:15.792659,4,10,17,15,4,7,5,1
15:36:15.807649,5,10,9,-13,10,-4,0,1
15:36:15.814644,-13,-23,-28,-29,-24,-4,-5,-6
15:36:15.837628,5,18,6,-15,5,-3,-5,-4
15:36:15.837628,-1,-1,13,19,-37,-26,-4,-4
15:36:15.844624,0,9,9,-3,11,1,0,3
15:36:15.852622,3,11,18,46,-7,13,0,-2
15:36:15.867612,-2,1,-1,-65,-63,0,1,-1
15:36:15.874608,-1,-2,-13,-22,3,-5,-1,1
15:36:15.889598,0,2,-3,-41,-19,-6,-3,-4
15:36:15.890598,1,4,8,5,-5,-4,1,0
15:36:15.904589,-3,-10,-13,-11,3,3,-2,-4
15:36:15.912585,3,4,-12,-63,-12,-3,3,2
15:36:15.927572,-17,-23,-4,28,43,15,-5,-12
15:36:15.934570,7,8,6,-3,2,1,1,3
15:36:15.949561,-1,0,3,39,54,14,3,4
15:36:15.950561,1,6,-2,-48,4,-5,0,2
15:36:15.972548,2,2,4,12,-3,-3,0,0
15:36:15.979543,3,1,-4,-21,-15,0,-1,2
15:36:15.987537,1,-6,-10,8,3,0,2,-1
15:36:15.994530,3,9,36,89,14,3,0,2
15:36:16.009524,-6,-6,-4,26,-25,6,0,-5
15:36:16.010521,-13,-23,-24,-12,-31,1,-3,-4
15:36:16.025514,5,14,1,-73,-36,-14,-2,-1
15:36:16.032509,-6,-5,-1,48,78,23,-4,-8
15:36:16.047501,2,1,-3,-23,-16,-6,2,1
15:36:16.054494,2,2,5,4,-5,0,2,5
15:36:16.069487,0,0,-5,6,-4,0,1,-1
15:36:16.070486,4,4,3,-5,4,4,-1,2
15:36:16.084477,6,6,10,26,18,3,2,4
15:36:16.092473,-4,-2,-9,-18,-23,-5,2,-3
15:36:16.107466,0,0,0,3,6,2,-1,-2
15:36:16.115455,0,-4,-1,-2,-4,-2,-1,0
15:36:16.129450,-1,-1,2,-2,-3,-3,3,2
15:36:16.130450,-2,-2,-4,-1,-1,13,-17,-1
15:36:16.144440,5,3,4,4,4,8,-13,8
15:36:16.152435,-12,-12,-19,-13,-11,-15,28,-17
15:36:16.167426,28,12,11,10,11,7,10,52
15:36:16.174422,-14,-13,-5,-2,1,18,-57,-14
15:36:16.189413,-34,4,-4,0,-10,-16,103,-68
15:36:16.190412,21,18,17,16,29,25,106,6
15:36:16.204402,33,-12,-1,1,-1,1,26,80
15:36:16.212399,69,-1,11,9,33,60,-102,127
15:36:16.227388,79,4,-26,-28,-72,-67,127,-5
15:36:16.235384,70,9,30,32,69,125,-128,127
15:36:16.249375,50,1,-27,-33,-69,-84,36,-116
15:36:16.250375,-105,-35,17,19,36,97,-128,-7
15:36:16.265366,-12,1,-8,-7,-8,-49,-128,-73
15:36:16.272361,56,21,25,26,26,27,-50,127
15:36:16.287352,-27,-10,-3,-1,-7,-7,63,-67
15:36:16.295344,-6,-2,-10,-20,-16,-2,-10,-6
15:36:16.309336,-5,-5,7,-7,-15,2,-18,-26
15:36:16.310335,-100,-72,-36,-25,-22,50,-124,-27
15:36:16.324328,1,41,37,86,-33,-52,4,-34
15:36:16.332324,34,8,28,47,127,71,-55,-44
15:36:16.347315,-56,12,0,34,-30,-73,-31,32
15:36:16.355310,-29,-30,-36,52,-95,-32,29,22
15:36:16.369301,75,24,33,10,69,127,-88,127
15:36:16.370300,3,28,24,-128,-128,-10,27,-32
15:36:16.385289,-128,-25,2,71,127,13,-1,-111
15:36:16.392287,-126,-22,-14,-16,35,-50,-128,-40
15:36:16.407278,-24,15,-21,-5,-33,-5,-9,-56
15:36:16.415272,-7,19,-80,46,112,62,60,43
15:36:16.430263,-66,-6,3,-128,-128,-35,-70,-73
15:36:16.430263,-94,-7,23,127,127,-13,-8,21
15:36:16.445255,-21,15,-5,-79,-50,-24,92,22
15:36:16.452249,-14,4,7,34,37,-28,-110,-15
15:36:16.467240,17,14,7,66,120,10,80,46
15:36:16.475235,12,14,16,-11,-128,37,49,18
15:36:16.490226,-54,-21,-1,-14,7,-3,-12,-59
15:36:16.497222,-4,-20,-29,-76,-128,-93,-11,25
15:36:16.505216,37,14,35,95,36,51,126,32
15:36:16.512212,16,14,16,-60,-16,0,-4,22
15:36:16.527203,45,14,-11,40,127,6,19,31
15:36:16.535198,-12,-4,42,16,62,-11,7,2
15:36:16.550189,42,9,13,2,-89,5,8,18
15:36:16.557185,-25,19,-14,-95,33,8,7,-1
15:36:16.580170,-2,-16,-80,-128,-128,3,6,7
15:36:16.580170,-56,1,32,72,-18,-7,-15,-17
15:36:16.587166,2,8,39,96,-36,-7,2,0
15:36:16.595161,9,-8,-15,-82,18,-6,7,-13
15:36:16.610149,-26,5,-32,50,91,1,-4,27
15:36:16.617147,5,5,-38,-128,-103,-13,-29,17
15:36:16.632136,-21,-38,6,-64,-128,-15,3,17
15:36:16.633136,-11,2,2,-3,7,6,2,-6
15:36:16.647129,-17,4,19,61,127,49,1,-18
15:36:16.655124,7,0,8,-104,-128,-15,-1,17
15:36:16.670114,-39,-23,-83,-43,-59,2,29,-72
15:36:16.685105,-5,5,15,-15,43,0,-7,-3
15:36:16.692101,22,12,21,26,-34,36,18,58
15:36:16.693098,2,8,-11,-11,-102,-5,30,22
15:36:16.707091,-1,-2,20,37,72,25,10,4
15:36:16.715087,3,1,-11,-19,4,-1,1,7
15:36:16.730077,4,-8,-16,-110,-128,-14,-1,2
15:36:16.737073,-26,-2,-10,36,111,11,-34,-30
15:36:16.752063,17,-6,-2,-8,68,-31,36,8
15:36:16.753060,-12,29,4,-8,-93,2,17,15
15:36:16.767054,22,0,-6,-65,-104,-8,-50,-38
15:36:16.775050,-2,-4,-38,-85,36,27,15,7
15:36:16.790040,-2,-4,-42,-128,-28,-6,-8,-4
15:36:16.797035,-9,-1,45,62,95,-14,-5,-8
15:36:16.820022,-9,-3,4,-38,42,15,5,-5
15:36:16.820022,15,7,1,35,-57,-8,-19,1
15:36:16.827017,0,-5,-30,-9,-14,-55,-55,-44
15:36:16.835013,20,3,42,77,127,45,24,29
15:36:16.850003,4,0,-6,40,127,26,12,10
15:36:16.856997,1,0,-18,-128,-26,-16,-6,-3
15:36:16.871989,-14,-2,-16,-91,8,9,16,-7
15:36:16.872989,4,-5,2,-20,66,10,5,-3
15:36:16.886980,-12,1,-4,-28,-58,-8,7,-5
15:36:16.894975,9,-3,4,-38,-6,-29,-13,6
15:36:16.909966,-1,2,9,127,80,15,-4,-14
15:36:16.916961,5,1,-12,43,111,14,3,8
15:36:16.931952,-12,-7,17,55,96,-9,-14,-13
15:36:16.932951,-4,-9,-2,-62,115,1,0,-10
15:36:16.946939,11,11,20,11,127,18,-6,10
15:36:16.954938,6,-17,-8,21,41,10,14,44
15:36:16.969929,9,10,16,60,6,8,9,7
15:36:16.976924,-23,-4,-6,-58,-78,-10,28,-21
15:36:16.991913,-6,-8,1,54,73,9,-8,-13
15:36:16.992914,1,2,-5,-6,79,2,4,2
15:36:17.006903,0,1,-25,-86,-128,-23,-8,0
15:36:17.014901,-10,-5,-6,64,121,17,0,0
15:36:17.029892,4,3,4,-1,-10,2,4,7
15:36:17.036888,13,4,1,-29,-7,5,19,21
15:36:17.051876,8,2,-3,1,-7,4,26,22
15:36:17.052877,0,-3,4,6,-17,-1,6,4
15:36:17.066866,-2,-3,-10,-33,-4,-4,-7,-1
15:36:17.074863,-1,0,4,5,-2,0,-4,-3
15:36:17.089854,3,1,-2,-30,-128,-4,0,1
15:36:17.097849,-13,-12,-7,-79,-128,-17,-12,-14
15:36:17.112837,-3,-7,-2,73,65,10,0,-5
15:36:17.112837,0,2,5,3,-1,1,-3,-3
15:36:17.134826,5,4,1,-6,-9,-8,8,37
15:36:17.134826,-2,-1,-3,-7,-8,3,-9,-4
15:36:17.149817,11,3,1,4,-35,-4,-9,-8
15:36:17.156809,0,1,-8,66,-73,1,20,7
15:36:17.171803,-8,-11,-17,34,-41,1,-9,-3
15:36:17.172803,7,9,25,3,-46,4,6,8
15:36:17.194789,-13,-11,0,63,101,-5,-13,-9
15:36:17.195787,5,3,7,6,18,5,0,4
15:36:17.209779,-8,-2,-2,-11,-8,10,7,10
15:36:17.217775,-10,-3,2,-26,14,15,6,-8
15:36:17.232763,26,7,4,-96,-109,-6,-1,20
15:36:17.232763,-3,-3,-8,-79,-128,-26,-1,0
15:36:17.254752,-6,1,0,-55,105,31,6,-3
15:36:17.255750,2,-2,-17,-128,-107,5,6,1
15:36:17.269740,-4,-1,5,22,32,-8,-10,-5
15:36:17.277735,2,3,1,15,35,11,3,1
15:36:17.292726,2,0,-3,-5,-11,-4,-5,2
15:36:17.292726,-3,2,-2,-5,-7,-1,-8,-4
15:36:17.314716,7,-1,-3,0,-3,-1,6,2
15:36:17.315711,-5,0,1,1,-47,1,0,0
15:36:17.329705,-8,-3,3,83,65,3,3,-4
15:36:17.337701,2,4,0,11,-68,-14,0,3
15:36:17.352688,-2,1,-1,1,53,4,-1,-4
15:36:17.352688,1,3,-1,-67,-35,-2,1,4
15:36:17.374678,1,-1,-6,25,2,0,-7,-3
15:36:17.375682,5,1,10,-21,26,1,2,3
15:36:17.389668,-5,-3,-3,-29,-79,-6,-2,0
15:36:17.397661,0,-4,-6,10,34,-3,7,6
15:36:17.412651,4,4,4,-46,115,27,10,9
15:36:17.412651,-2,-4,-3,5,-16,-20,-7,-4
15:36:17.427642,-2,-1,-1,10,22,4,-5,-5
15:36:17.434641,1,-1,1,10,-11,-2,-1,3
15:36:17.449631,-2,-2,0,-2,-8,0,-6,-1
15:36:17.457626,-3,1,1,8,15,-8,1,0
15:36:17.472617,-7,-2,-5,24,0,-14,-14,-7
15:36:17.479612,-1,-3,-3,-17,-33,-1,-4,-1
15:36:17.494603,-1,-1,4,80,-57,-2,-1,-3
15:36:17.495600,-2,-1,-5,16,13,-7,-5,-4
15:36:17.509593,3,2,4,68,4,-6,0,0
15:36:17.517589,-3,0,-1,-3,-34,-6,-1,1
15:36:17.532583,-4,-4,-4,10,15,-5,-3,-6
15:36:17.539575,2,-3,0,2,3,-1,-1,-3
15:36:17.554566,-1,-1,-2,-2,15,-2,-1,-5
15:36:17.555565,-1,-1,-4,-32,-5,-14,-11,-6
15:36:17.569556,-7,-7,-2,35,30,-6,-12,-6
15:36:17.577551,0,3,-3,8,89,-1,-1,-4
15:36:17.592542,8,2,3,-88,6,-1,3,2
15:36:17.599538,1,-4,-1,9,6,-1,-1,-4
15:36:17.614528,2,0,-1,-2,-4,-2,-1,0
15:36:17.615528,5,0,4,0,3,0,-1,2
15:36:17.629519,-7,-2,0,-1,-5,-5,-3,-2
15:36:17.637515,2,3,0,-1,8,1,1,1
15:36:17.652505,2,-1,-6,-53,5,1,1,0
15:36:17.659500,-1,-1,2,71,-66,-12,-4,-4
15:36:17.674492,-2,-3,-4,24,-33,-1,2,-4
15:36:17.675491,6,4,1,6,3,2,6,13
15:36:17.689482,1,1,-4,1,-4,-6,-13,-4
15:36:17.697477,-1,0,-1,-4,-8,-2,-2,-3
15:36:17.712469,-4,0,0,-3,-1,0,-3,-3
15:36:17.719463,3,0,2,3,-6,-4,-3,1
15:36:17.734454,-4,-6,-5,-3,-4,-1,1,-3
15:36:17.735451,2,5,-2,-3,48,10,3,6
15:36:17.749442,-1,0,-4,-26,-92,-22,-4,-3
15:36:17.757440,-7,-5,-12,-128,-88,-6,-4,-8
15:36:17.772430,12,0,3,0,-79,-1,3,14
15:36:17.779427,2,1,4,21,-77,-4,-2,0
15:36:17.795415,-11,-3,-3,-11,-6,-4,-11,-15
15:36:17.795415,4,5,0,-120,-12,6,12,8
15:36:17.809406,-3,-5,-4,-52,8,1,-1,-10
15:36:17.817403,-7,-6,1,31,47,5,4,5
15:36:17.832393,4,2,6,-8,52,10,5,3
15:36:17.839389,-3,-4,-9,-30,60,-8,-4,-6
15:36:17.854380,-2,-2,-2,0,10,6,1,-4
15:36:17.855376,2,2,3,21,7,7,1,0
15:36:17.869369,2,3,-4,-48,-35,-7,0,3
15:36:17.877365,0,1,-2,1,-2,-1,-6,-5
15:36:17.892357,-3,-2,2,8,-6,-4,-1,-1
15:36:17.899351,0,2,-1,-14,-20,-2,7,3
15:36:17.915342,6,2,-1,7,50,2,-2,-2
15:36:17.915342,-3,2,4,7,4,-4,1,-3
15:36:17.930333,1,0,-3,-21,33,2,-2,-3
15:36:17.937329,-2,0,-3,-5,6,-10,-17,-1
15:36:17.952319,-1,-1,4,26,17,0,-6,-1
15:36:17.959311,-2,-1,-6,-47,-10,0,0,0
15:36:17.975303,-2,-3,-4,18,4,-5,2,-3
15:36:17.975303,-3,0,-1,-18,-32,-1,-3,-1
15:36:17.997295,-3,-3,2,9,15,3,2,3
15:36:17.998291,-1,2,0,-7,10,0,-3,-2
15:36:18.012282,2,2,5,1,44,8,2,1
15:36:18.027273,3,-1,6,27,3,-1,0,5
15:36:18.042261,0,-2,-1,-38,7,1,-1,-1
15:36:18.042261,-3,1,0,10,-45,-1,1,-1
15:36:18.050258,-3,-7,-1,11,9,2,1,-2
15:36:18.057254,-5,0,-8,-8,-1,2,-8,-2
15:36:18.072245,-1,-2,-1,-48,-35,-1,-3,-4
15:36:18.080241,-1,0,1,9,-6,2,1,-4
15:36:18.095228,2,2,0,21,19,-3,0,0
15:36:18.095228,0,-2,-4,-70,-13,1,-4,-2
15:36:18.110219,-9,-6,-3,-43,6,-2,-3,-4
15:36:18.117217,-3,-3,1,1,-9,-4,-9,-7
15:36:18.132207,2,-1,-2,-2,1,2,1,0
15:36:18.140202,-1,-1,-3,1,7,-3,-3,-3
15:36:18.155190,2,3,-1,-28,7,-3,-2,-2
15:36:18.155190,-3,0,0,0,3,-1,-4,-2
15:36:18.170185,-1,-3,-1,-4,-2,1,-2,-2
15:36:18.177180,0,-4,-3,-13,-2,-4,4,0
15:36:18.192171,-3,0,-2,-42,-29,0,-2,0
15:36:18.200166,0,0,3,12,6,-5,-9,-1
15:36:18.215154,-3,-2,-3,-21,60,-1,-4,-8
15:36:18.216156,0,0,0,9,5,-2,2,1
15:36:18.230147,-1,-2,-3,-2,1,1,3,-2
15:36:18.237142,-3,0,1,-3,-10,-2,0,0
15:36:18.252133,-6,-3,-3,0,5,-5,-2,-4
15:36:18.260125,2,-1,2,-3,-8,-4,0,-1
15:36:18.275119,-4,-1,-3,-1,3,-2,-2,-5
15:36:18.275119,1,0,3,25,23,-3,4,3
15:36:18.290110,1,2,-2,-9,-14,2,1,0
15:36:18.297105,-4,-4,-1,6,13,0,-6,-4
15:36:18.312096,2,-2,1,2,0,0,-4,1
15:36:18.320091,-1,-4,-4,-33,-17,0,1,4
15:36:18.335082,-3,-1,-3,2,-4,-3,-3,-5
15:36:18.335082,-3,1,2,-6,8,4,1,1
15:36:18.357068,1,1,2,3,-2,-1,6,9
15:36:18.358068,-1,-3,-3,-4,-4,-3,-4,-6
15:36:18.372059,0,-2,0,-2,-15,-3,5,2
15:36:18.380054,-5,-5,-3,-4,-4,-6,-5,-6
15:36:18.395045,-1,-1,-2,12,7,-3,-9,1
15:36:18.402038,-7,2,0,4,-2,-17,-11,-15
15:36:18.417031,-1,0,2,-1,-18,-1,-3,2
15:36:18.418030,0,0,0,7,12,-5,-5,-2
15:36:18.432022,5,0,1,1,0,0,-8,-3
15:36:18.440017,-3,-3,-2,-3,-3,-1,0,-2
15:36:18.455008,-6,-1,-1,-2,0,8,2,-4
15:36:18.462002,2,2,-6,-19,-4,2,7,7
15:36:18.476994,2,1,3,11,-21,-4,3,-3
15:36:18.477994,-5,-7,-3,-28,10,2,0,-7
15:36:18.492983,-2,-4,-4,5,0,1,-3,1
15:36:18.499979,-3,-1,-1,-3,-3,-4,-6,-3
15:36:18.514971,1,-2,1,-1,-4,0,-1,0
15:36:18.521975,-1,-4,1,2,5,1,0,-2
15:36:18.536956,-2,-1,-1,0,0,-2,1,0
15:36:18.537954,0,0,0,-1,-3,-2,-1,1
15:36:18.551945,-2,-3,-1,-8,-3,-1,-1,-1
15:36:18.566938,-1,-2,-4,-1,5,2,-3,-1
15:36:18.574933,-7,-2,0,1,-46,-3,10,3
15:36:18.581928,-4,-2,-3,-2,9,3,-4,-2
15:36:18.596919,2,2,-1,1,-1,-3,-4,-3
15:36:18.604915,-2,2,0,10,0,0,2,-1
15:36:18.611910,-4,0,-4,-29,-8,-2,-4,-4
15:36:18.619906,5,3,4,8,6,2,3,4
15:36:18.634896,0,-2,-1,-1,1,-3,-4,-1
15:36:18.641891,-4,-4,-2,0,2,-2,-1,-6
15:36:18.656881,-8,-2,-2,-5,-4,-4,-10,-9
15:36:18.657881,1,0,-1,0,10,0,5,2
15:36:18.671871,-3,-4,-2,-1,0,0,2,0
15:36:18.679865,-2,1,-3,-8,6,-2,5,-4
15:36:18.694859,2,0,5,9,-51,0,4,3
15:36:18.701852,-5,0,-3,-2,8,1,0,-1
15:36:18.716846,-3,-1,-2,12,6,-1,-1,-3
15:36:18.717844,-1,-1,-5,-15,-12,-4,-2,0
15:36:18.732835,-3,-2,-1,-3,-6,1,2,-1
15:36:18.739831,1,-1,0,2,3,0,-2,-4
15:36:18.754821,-3,-4,-2,-1,-4,0,-1,-3
15:36:18.762816,-2,-5,-3,-2,5,3,1,4
15:36:18.777805,11,5,8,8,5,0,7,11
15:36:18.777805,-2,-2,1,10,-4,-5,-5,-1
15:36:18.799794,1,2,1,10,2,1,4,-2
15:36:18.800793,-3,-1,-4,1,2,-3,-1,-2
15:36:18.814784,2,2,-2,18,0,3,-1,3
15:36:18.821781,-6,1,-3,12,45,0,-1,-2
15:36:18.836771,1,-1,-1,8,16,5,-2,-4
15:36:18.837770,3,3,-1,1,-31,-8,0,2
15:36:18.852761,5,-1,0,4,11,4,3,1
15:36:18.859754,-5,-3,-1,-1,-2,-2,0,3
15:36:18.882742,-8,-2,1,0,3,1,-2,-6
15:36:18.882742,-3,-4,-1,-4,-4,-10,-9,2
15:36:18.897730,-2,-2,0,2,1,0,-5,-6
15:36:18.897730,-2,-1,-1,2,0,1,2,-1
15:36:18.912724,0,0,1,-39,-9,-2,1,-1
15:36:18.919719,-1,-2,-1,14,9,-6,-6,-1
15:36:18.934710,0,-3,-2,20,22,6,3,0
15:36:18.941704,0,-5,-3,-3,-53,-10,-3,-4
15:36:18.957693,0,-3,-1,1,11,2,-1,-4
15:36:18.957693,-1,-1,4,2,6,-1,-7,1
15:36:18.972683,3,4,-2,-3,-8,1,5,0
15:36:18.979681,-6,-1,-2,-2,-4,-1,2,-2
15:36:18.994672,0,-1,0,1,7,-4,3,-2
15:36:19.002667,-1,-1,-3,-30,-13,1,5,2
15:36:19.024654,0,0,0,2,-1,-2,-1,1
15:36:19.025652,-2,-4,-1,3,1,1,-3,-4
15:36:19.032649,-3,-3,2,1,2,-1,-2,-3
15:36:19.047640,-3,0,1,2,3,-3,0,1
15:36:19.054635,0,0,6,0,-47,-1,3,6
15:36:19.062631,7,-1,0,3,12,2,0,0
15:36:19.084617,6,1,0,6,-2,-2,-2,1
15:36:19.085625,-2,-1,1,3,2,0,-4,-1
15:36:19.092612,-1,-2,0,21,3,-4,2,2
15:36:19.099607,-1,-1,-3,-1,-3,1,-1,-2
15:36:19.114599,1,4,0,-4,-1,3,1,2
15:36:19.122591,-1,-3,0,4,8,-2,-2,-3
15:36:19.137582,-1,-1,0,-4,3,3,1,2
15:36:19.137582,0,0,1,-1,-5,1,-7,5
15:36:19.152575,-2,0,2,-1,-6,0,0,-3
15:36:19.159570,-2,-4,-1,-1,4,-2,-2,0
15:36:19.174558,1,-3,-2,1,0,2,-2,-7
15:36:19.182556,1,2,0,0,-5,-3,1,2
15:36:19.197545,1,0,2,2,36,8,1,2
15:36:19.198546,-3,2,-1,-37,-13,-9,-2,-5
15:36:19.212538,1,2,0,11,9,2,2,1
15:36:19.219533,0,-1,0,2,6,3,-2,1
15:36:19.234523,-3,-1,2,-4,-2,1,-1,-1
15:36:19.242521,1,0,-1,-2,-3,-1,-2,1
15:36:19.257509,-2,-3,1,0,-3,-3,1,-5
15:36:19.257509,11,2,0,-3,-2,-1,1,2
15:36:19.272501,-2,-2,-2,-7,5,2,-4,0
15:36:19.280496,-1,-2,2,6,3,2,6,-1
15:36:19.295484,1,0,1,18,9,-4,-3,-2
15:36:19.302482,0,1,-2,-11,-3,0,-2,0
15:36:19.317470,2,0,-1,-28,-51,-3,-1,0
15:36:19.317470,0,0,1,7,11,-1,0,-3
15:36:19.332463,-4,2,0,0,0,-1,-1,-2
15:36:19.339459,-6,0,-5,3,2,2,-2,2
15:36:19.355449,-1,1,-1,1,-6,-4,-6,-1
15:36:19.362445,1,-3,-2,-3,-1,-3,-1,0
15:36:19.377433,3,2,-1,2,3,4,-2,4
15:36:19.392426,-4,-6,0,1,0,-3,-1,-2
15:36:19.399421,-1,0,-1,-5,-1,-1,3,0
15:36:19.400421,0,-1,1,10,14,-2,5,2
15:36:19.415409,-3,-3,-2,-38,-7,-1,-3,-4
15:36:19.422408,3,1,2,-1,-8,-1,3,-2
15:36:19.437398,1,0,2,9,14,-1,-4,-2
15:36:19.444393,9,5,3,1,3,4,1,3
15:36:19.459384,1,1,-2,-5,-4,3,4,-1
15:36:19.460381,-1,-1,-4,-1,-6,-5,4,0
15:36:19.475374,-3,0,-1,2,-2,-4,2,1
15:36:19.482370,-4,-2,-4,-2,1,0,-4,0
15:36:19.505354,-2,3,-1,-4,0,1,-1,-1
15:36:19.505354,0,1,-1,3,-3,-1,-1,-1
15:36:19.519347,3,1,-1,21,-3,-2,-1,4
15:36:19.520345,0,-1,-5,-16,-8,-3,-3,-2
15:36:19.535338,-2,0,1,8,8,-1,4,0
15:36:19.542333,0,-1,-1,-3,-3,-6,-12,1
15:36:19.557324,-2,1,-3,-3,-6,-2,-1,-2
15:36:19.565319,-1,-1,-2,1,-4,1,2,-2
15:36:19.580310,1,0,-1,0,-3,-4,-1,0
15:36:19.580310,-1,-1,-1,0,-2,-2,-1,-2
15:36:19.595300,0,-3,1,0,2,2,1,-3
15:36:19.602296,1,0,-3,-3,9,-1,1,-2
15:36:19.617287,-4,0,0,2,0,-6,-1,-1
15:36:19.625282,-4,1,0,-1,7,0,-4,-3
15:36:19.639272,-4,-2,-1,-3,-6,0,-1,-3
15:36:19.640272,4,6,2,-8,-1,8,4,6
15:36:19.655261,-4,-2,-4,9,5,-4,-3,-1
15:36:19.662259,-3,-2,-1,1,-1,-4,-3,-2
15:36:19.677249,-2,1,1,0,-3,1,0,-1
15:36:19.685241,2,-1,-2,-4,-1,-1,0,1
15:36:19.700235,0,1,-2,-2,-4,-2,-1,-3
15:36:19.700235,0,-4,0,9,-6,0,1,-1
15:36:19.715226,1,-1,1,3,16,1,0,0
15:36:19.722222,1,-3,-2,-4,-6,-3,-1,4
15:36:19.737209,-2,0,-1,-5,-1,0,6,0
15:36:19.745205,0,-1,0,0,0,-3,-5,1
15:36:19.759197,-2,-1,-2,-28,-7,1,3,-3
15:36:19.760195,0,-1,-3,6,3,-4,-3,-1
15:36:19.775186,1,-2,1,6,5,2,0,2
15:36:19.782184,-2,-1,1,-3,-1,-2,-2,0
15:36:19.797175,5,2,-1,2,22,4,2,2
15:36:19.812166,-5,-4,0,-4,-6,-6,1,-2
15:36:19.820158,0,0,2,-1,2,1,0,2
15:36:19.827157,0,1,0,0,-4,-4,-4,-5
15:36:19.835151,-1,-1,-3,-1,0,3,0,0
15:36:19.842147,-1,0,0,1,-1,-3,-1,-1
15:36:19.857138,-1,2,-1,-3,-6,0,-1,-2
15:36:19.865133,1,2,2,13,5,1,1,-1
15:36:19.880123,0,-5,-5,-20,-9,0,-1,-5
15:36:19.887119,1,5,4,8,11,3,4,3
15:36:19.895115,-2,-2,-3,-4,-3,-2,5,-1
15:36:19.910105,1,-1,1,-15,1,-1,-3,0
15:36:19.917101,-1,-2,1,3,-8,1,-1,2
15:36:19.925096,0,-1,-2,-4,0,-1,1,-3
15:36:19.940086,-4,-3,-1,-4,-1,-3,-1,-2
15:36:19.947082,0,-2,-3,-3,-9,-2,0,1
15:36:19.955078,0,1,-1,1,0,0,0,2
15:36:19.962072,-2,-4,-5,0,-7,-3,-1,-4
15:36:19.977061,-1,-1,2,17,-3,-7,-4,-3
15:36:19.985059,-1,-3,-3,4,3,1,-3,-5
15:36:20.000049,2,1,0,1,2,2,0,3
15:36:20.007045,1,-1,-3,-3,-3,-3,-4,0
15:36:20.015040,-1,0,0,1,-4,-6,-1,-1
15:36:20.022036,-2,-3,-2,-3,-2,0,-3,1
15:36:20.037026,-2,0,2,-5,-2,-2,1,-3
15:36:20.045022,-2,-1,-2,-3,-1,-2,-1,-2
15:36:20.060012,-3,0,0,-1,4,1,0,1
15:36:20.067008,-3,-2,-1,-7,-13,-4,0,-1
15:36:20.075003,-2,-1,-2,5,8,-5,-6,-3
15:36:20.081998,-2,-3,-3,-5,-6,1,0,-3
15:36:20.096989,4,-1,2,-4,0,-2,0,-4
15:36:20.104985,0,1,0,2,-3,-2,-1,3
15:36:20.119972,-5,-4,-7,-3,-7,-7,-3,-5
15:36:20.126971,-3,-2,-3,6,4,1,0,-2
15:36:20.134966,-2,-3,-3,3,-2,-3,0,-4
15:36:20.141961,-1,-2,-4,2,-8,-3,0,-1
15:36:20.156951,1,-1,2,1,4,2,1,1
15:36:20.164947,-1,2,0,-3,2,-6,-2,-4
15:36:20.179938,-4,-2,-3,-7,-6,-3,-1,-3
15:36:20.186932,-1,0,-1,0,4,1,-2,-3
15:36:20.194929,1,2,0,3,2,2,0,4
15:36:20.201923,-1,-1,-1,6,-5,-3,-2,-3
15:36:20.216912,-1,0,-3,1,-2,-2,-1,0
15:36:20.231903,0,0,-2,0,-8,1,2,1
15:36:20.239902,0,-2,-2,1,2,-4,-3,3
15:36:20.239902,-2,0,-2,-3,-1,-1,-1,0
15:36:20.254892,-1,-3,0,-1,2,0,-3,-4
15:36:20.261886,3,0,-3,-19,-3,3,1,5
15:36:20.276877,-2,-1,1,6,8,-1,-2,-4
15:36:20.284872,-4,-1,1,3,-19,-7,-1,-2
15:36:20.299864,0,-4,-3,0,5,2,-1,-2
15:36:20.306856,1,2,2,11,-1,-3,2,-1
15:36:20.321849,-1,-4,0,5,5,2,-1,-3
15:36:20.322846,1,2,-1,-4,-4,1,-2,2
15:36:20.337837,0,-2,-2,-1,-5,0,-1,1
15:36:20.344833,-3,0,-3,-3,-2,-1,2,-2
15:36:20.359826,0,-2,-2,-29,-18,-2,-1,0
15:36:20.366820,-2,0,2,12,8,-5,-2,0
15:36:20.381812,-1,3,0,5,13,5,3,3
15:36:20.382812,0,1,-2,2,-6,0,-1,-3
15:36:20.397803,0,-2,0,2,-11,-6,0,0
15:36:20.404798,-2,-2,1,-1,0,-1,-2,-1
15:36:20.419789,3,0,-2,-2,-1,-2,0,4
15:36:20.426784,-2,1,-1,1,-1,1,1,-2
15:36:20.441775,-1,-3,-3,-2,-6,-3,-4,-2
15:36:20.442772,-2,1,1,1,-3,0,0,2
15:36:20.457766,-1,-2,-1,-2,-1,-1,-4,-1
15:36:20.464761,-3,-1,-3,3,-2,-5,-4,-4
15:36:20.479749,-1,-5,-1,3,-3,-3,0,0
15:36:20.486747,-1,0,-2,1,-1,-3,-2,1
15:36:20.501736,-1,0,0,-6,1,3,-2,0
15:36:20.502737,0,0,-1,3,-11,-2,2,-4
15:36:20.517728,-2,0,-4,1,5,0,1,-1
15:36:20.524724,-2,0,-3,-3,-3,-5,-1,-3
15:36:20.547707,0,-2,2,-3,0,5,0,-1
15:36:20.547707,0,0,0,1,2,-2,1,-1
15:36:20.562697,-2,-1,0,-1,-3,-4,-7,-2
15:36:20.562697,2,-1,0,0,-2,-3,1,0
15:36:20.577688,-2,0,-1,0,0,1,-1,3
15:36:20.584687,1,-1,-1,-2,-5,-4,-1,0
15:36:20.599677,3,0,0,2,-1,-5,-3,1
15:36:20.607673,-1,-1,0,-2,0,-4,-3,2
15:36:20.622661,4,1,3,11,7,5,3,2
15:36:20.622661,-3,-2,-3,-34,-21,-6,-4,-2
15:36:20.637654,-2,-3,1,4,8,-1,0,2
15:36:20.644646,1,2,-2,-1,-5,-1,0,-2
15:36:20.659640,1,-2,-4,-2,-3,6,-2,0
15:36:20.667640,-4,-1,-1,-19,0,-3,-4,-3
15:36:20.682623,-5,-5,-3,-2,-7,-7,-4,-3
15:36:20.682623,1,-2,-3,-4,-6,1,-2,-3
15:36:20.697617,-3,-2,2,-2,-5,0,-2,-3
15:36:20.704614,-1,0,1,-2,2,-3,0,-2
15:36:20.719603,1,0,-1,19,10,-1,-3,-3
15:36:20.727596,-5,-1,-1,1,6,-4,-5,-2
15:36:20.742589,0,-1,-1,0,1,-2,-1,2
15:36:20.742589,0,-1,-1,6,4,-2,1,-1
15:36:20.757580,-3,-3,-2,2,-3,-3,-1,-2
15:36:20.764574,1,1,1,1,0,-1,-1,-2
15:36:20.779565,-3,-1,-5,-3,-6,-2,-1,0
15:36:20.787561,-3,1,-1,2,2,1,-2,-1
15:36:20.802549,5,6,2,-7,1,3,4,3
15:36:20.802549,-4,-5,-3,1,12,0,-4,-8
15:36:20.817542,1,-4,-4,-3,1,1,0,2
15:36:20.824537,-4,-2,0,6,-2,-1,-1,-5
15:36:20.839528,-1,1,-2,-24,-16,-3,-3,0
15:36:20.847524,-1,1,2,4,4,0,-1,-5
15:36:20.862511,-1,-2,1,2,-2,0,0,3
15:36:20.862511,-4,0,0,6,3,-3,-2,-2
15:36:20.877505,-3,-1,-2,-5,-4,-4,-1,-2
15:36:20.884500,-1,1,-2,-3,-2,-1,-3,-3
15:36:20.899490,0,-1,0,2,-1,-3,0,0
15:36:20.907486,1,-2,-1,-2,2,-2,-3,-1
15:36:20.922474,-4,-5,0,-3,2,-2,-2,-4
15:36:20.922474,-1,-1,0,-14,-5,-1,-1,-4
15:36:20.937468,1,1,1,-17,-8,-4,-1,0
15:36:20.944461,-3,-1,-1,2,1,-2,-3,-3
15:36:20.959453,1,-4,2,-1,1,-1,0,-1
15:36:20.974445,-2,-4,-3,1,0,-1,-1,-1
15:36:20.982437,-1,-1,0,2,-3,0,-2,-1
15:36:20.982437,3,-2,-1,0,-1,1,-2,-1
15:36:20.997431,4,4,0,1,-4,1,0,4
15:36:21.004423,-5,-2,-1,1,-5,-4,-2,0
15:36:21.020416,0,-1,0,0,3,5,1,-2
15:36:21.027412,-2,0,-3,-3,-1,-2,0,-2
15:36:21.049398,2,0,1,1,-1,-3,0,4
15:36:21.050395,-3,-1,1,1,1,0,2,-3
15:36:21.057394,1,-1,-1,1,6,-1,-1,-1
15:36:21.065387,1,3,-1,1,-2,-5,-1,0
15:36:21.080380,-2,0,-2,-1,0,-3,1,0
15:36:21.087373,-4,0,-1,-3,-4,0,-1,0
15:36:21.102365,0,1,1,1,7,5,1,4
15:36:21.102365,-1,-2,0,5,-1,-6,-2,-3
15:36:21.117356,1,-1,-3,-5,-2,1,-1,-2
15:36:21.124351,2,-1,0,3,7,0,0,2
15:36:21.140345,0,-2,0,-27,-15,-1,0,-3
15:36:21.147338,-2,0,-1,8,5,-3,-5,-3
15:36:21.162330,-1,0,0,6,5,4,-3,-1
15:36:21.163325,-2,-3,-3,0,6,-4,-2,-1
15:36:21.177316,0,0,0,-3,1,2,0,-3
15:36:21.185314,-3,2,-4,-4,-12,-3,-2,0
15:36:21.200305,-4,-1,-2,-1,4,-2,-3,-4
15:36:21.207301,-1,-3,-4,-3,2,-2,1,3
15:36:21.230284,-3,-5,0,-1,-1,0,1,-2
15:36:21.230284,-2,1,-4,-27,-19,-1,1,-2
15:36:21.237282,-1,0,-1,14,15,-1,-2,0
15:36:21.252272,-2,-2,-1,0,4,2,0,-2
15:36:21.260267,0,-2,-2,0,-5,3,-1,1
15:36:21.267263,2,-1,-1,3,3,-2,-1,0
15:36:21.282254,2,0,-1,6,-2,5,4,5
15:36:21.290250,-1,-3,-1,-1,-3,-4,0,0
15:36:21.304237,-2,-2,-1,-5,-4,-1,-2,-1
15:36:21.305240,-2,1,-2,-3,-3,-1,1,-1
15:36:21.320228,3,-1,-1,2,-2,3,-2,0
15:36:21.327223,-2,-4,0,-2,5,-1,-1,-1
15:36:21.342217,0,-4,-1,12,4,-1,1,1
15:36:21.350209,3,-5,-1,2,7,2,0,-2
15:36:21.365200,-1,-1,-3,-11,-6,-6,-3,-1
15:36:21.365200,-1,2,3,-4,2,6,2,3
15:36:21.387189,-2,-3,0,3,-4,0,-1,-2
15:36:21.388188,-2,0,-2,0,2,5,2,0
15:36:21.402179,-1,-2,-3,-30,-10,2,-1,-1
15:36:21.410172,2,-3,-3,4,3,-1,1,1
15:36:21.425162,1,-4,-1,12,8,6,2,0
15:36:21.425162,0,1,-1,3,-9,-6,-1,1
15:36:21.440155,-6,-3,-2,-2,2,2,0,-1
15:36:21.447152,2,2,1,3,3,1,1,2
15:36:21.462142,-3,-1,0,1,-1,-3,-1,-3
15:36:21.470136,-2,-2,0,0,1,0,0,0
15:36:21.492121,-3,-1,2,-4,0,-2,0,-2
15:36:21.493121,-1,-1,-1,-2,0,5,3,3
15:36:21.500118,-3,-1,0,6,4,-4,0,1
15:36:21.507114,-1,0,1,-17,-3,2,0,0
15:36:21.522106,0,2,-2,-5,-20,-2,0,0
15:36:21.530100,-1,-1,-1,7,7,3,-1,2
15:36:21.545088,-1,-3,-3,1,3,-1,0,-1
15:36:21.545088,-1,-1,1,-2,0,-2,1,-1
15:36:21.560081,0,-2,2,-6,-11,-7,-1,0
15:36:21.575073,-2,-2,1,4,5,4,-2,0
15:36:21.582067,2,1,-2,0,-1,-2,-1,2
15:36:21.597059,-3,0,-2,-8,-5,1,-2,-2
15:36:21.605051,1,-1,-1,16,8,2,1,1
15:36:21.605051,0,-4,-3,5,2,-1,-4,-1
15:36:21.620045,-3,2,2,1,5,4,-1,-1
15:36:21.627037,-1,0,3,1,-2,-2,2,-1
15:36:21.642031,0,-2,-1,-1,5,-3,-2,0
15:36:21.657022,-4,2,-1,-2,-4,-5,0,0
15:36:21.665014,-5,1,1,-2,-4,1,0,1
15:36:21.665014,2,0,4,3,4,2,1,4
15:36:21.687999,-2,-4,0,3,5,-4,-4,-4
15:36:21.687999,1,-1,0,-2,-1,0,1,-1
15:36:21.701993,-2,0,-4,-3,-7,-3,-1,-4
15:36:21.709986,3,2,-2,-17,-19,-1,0,3
15:36:21.724977,-4,0,-5,3,2,-1,0,0
15:36:21.724977,-4,-2,-1,-3,3,3,0,0
15:36:21.739970,-2,3,1,-2,-5,-2,-1,-2
15:36:21.746964,-5,-2,-1,-5,-3,-3,0,0
15:36:21.769948,0,1,0,-1,-2,-2,-3,-1
15:36:21.769948,-1,1,0,-1,3,4,1,3
15:36:21.784939,-3,-4,1,0,1,0,-2,-1
15:36:21.784939,1,-1,-1,-1,-2,0,2,3
15:36:21.799933,-3,0,-2,-3,-9,0,1,1
15:36:21.806927,3,1,0,1,3,0,-1,2
15:36:21.821919,2,0,-2,-32,-7,0,-2,-3
15:36:21.829914,-4,-3,-4,4,3,-7,-1,1
15:36:21.844905,-1,-4,-2,-5,-2,0,2,-2
15:36:21.844905,-1,0,-3,-12,-3,3,1,-1
15:36:21.859895,2,0,0,-3,-7,1,0,-1
15:36:21.866891,-1,-2,2,3,0,-1,0,-1
15:36:21.881882,-1,1,2,-3,-4,-2,-2,-3
15:36:21.889877,2,-1,-4,-4,-6,1,2,2
15:36:21.904868,-3,0,-3,-2,-3,-1,0,-4
15:36:21.905865,2,-1,-1,0,1,1,0,-2
15:36:21.926854,-3,-3,-2,-4,-6,1,0,-3
15:36:21.927851,0,0,0,7,-4,0,-1,-1
15:36:21.941843,-2,0,-2,-26,-13,-4,-3,-3
15:36:21.949840,0,-2,-1,9,10,3,-1,-1
15:36:21.964831,-3,-2,-3,0,1,-2,-1,-2
15:36:21.964831,-3,-1,-3,-4,1,-2,2,-2
15:36:21.979821,0,0,-4,5,-3,2,0,2
15:36:21.987814,-3,-1,-1,6,3,1,-1,0
15:36:22.002805,-5,1,0,-1,0,-1,-1,-3
15:36:22.009803,-1,0,1,-4,-4,-2,1,1
15:36:22.024794,-1,-3,-2,0,-1,2,-1,-1
15:36:22.024794,-3,1,0,-2,-3,0,1,2
15:36:22.039784,-4,-2,0,1,5,1,-2,-3
15:36:22.047780,-1,-1,0,-1,-3,-4,-1,0
15:36:22.062770,4,0,1,2,-3,7,1,-2
15:36:22.069766,-1,-3,1,22,13,2,3,1
15:36:22.084756,0,-1,0,6,-1,2,0,2
15:36:22.085756,-2,0,-2,-1,0,0,-3,-1
15:36:22.099747,-2,0,-2,-1,-3,-2,-1,-3
15:36:22.107743,-1,1,-5,-1,0,5,3,2
15:36:22.122733,0,-4,-1,0,0,0,-2,-3
15:36:22.129729,1,-1,-2,-4,-4,-6,-1,-2
15:36:22.144719,3,3,4,13,0,-3,4,2
15:36:22.145719,-1,-3,-3,-1,5,-3,-4,-3
15:36:22.159710,0,-1,0,-4,-1,2,-1,-1
15:36:22.167705,4,-1,-2,1,-4,-3,1,0
15:36:22.182697,-1,1,0,3,10,6,1,1
15:36:22.189691,-2,1,-4,1,-7,-6,-3,-1
15:36:22.205682,0,-2,-2,11,6,-3,-2,1
15:36:22.212677,-3,-2,-4,6,1,-2,-1,-1
15:36:22.227665,2,-3,2,-4,-3,0,1,0
15:36:22.227665,1,-2,0,1,4,-1,1,1
15:36:22.242658,2,0,1,2,4,3,1,4
15:36:22.249654,-3,0,0,7,5,-2,-3,0
15:36:22.264645,-2,-2,0,-3,-4,3,-1,0
15:36:22.272637,-1,0,0,-3,-5,-2,-2,-2
15:36:22.287628,0,1,0,-3,-8,-1,-1,0
15:36:22.287628,3,1,1,28,10,-3,4,3
15:36:22.302621,-1,1,1,0,-1,-3,-2,2
15:36:22.309616,1,0,2,6,3,0,-3,-3
15:36:22.332600,-1,1,2,0,-2,2,-1,1
15:36:22.332600,-1,-1,2,-8,-7,-2,-3,-1
15:36:22.347592,2,0,2,3,0,0,2,1
15:36:22.347592,0,-1,-1,1,-2,-3,-3,4
15:36:22.362584,-3,0,-2,-1,-2,-2,-1,-2
15:36:22.369580,0,-2,0,-1,-5,-1,0,0
15:36:22.384570,-1,-1,1,4,-1,1,0,3
15:36:22.392566,0,-2,1,-1,-10,2,2,-1
15:36:22.407553,-3,1,0,4,3,-3,1,-1
15:36:22.407553,-1,0,-2,-1,-3,-8,-4,1
15:36:22.422547,0,0,-1,-1,-2,-2,1,-1
15:36:22.429541,-1,-3,1,15,-2,-3,-2,1
15:36:22.444533,0,-2,-1,-2,-4,0,-2,-5
15:36:22.452528,-2,0,-1,-1,0,-2,-1,-2
15:36:22.467518,-2,-4,-2,-3,-7,-3,0,0
15:36:22.467518,0,-4,-2,-6,-2,-3,-2,-1
15:36:22.482509,-2,1,1,-2,0,-3,-3,-4
