timestamp,emg1,emg2,emg3,emg4,emg5,emg6,emg7,emg8
14:46:31.851256,1,-1,-2,-2,-5,-2,1,-1
14:46:31.851256,-1,1,-1,-3,1,-3,-2,-4
14:46:31.873267,3,0,1,0,-1,0,0,-1
14:46:31.873267,-1,-2,0,-3,-2,0,-1,1
14:46:31.888253,-1,-2,-2,0,1,1,-1,0
14:46:31.888253,-1,-2,-1,2,0,0,0,0
14:46:31.910218,1,-3,-2,-2,-3,1,0,0
14:46:31.911217,-1,3,-1,-2,-1,-1,-1,0
14:46:31.933217,2,-2,1,-1,1,2,1,-3
14:46:31.933217,0,2,-3,0,0,2,1,1
14:46:31.948194,-1,0,0,-2,-1,-4,-2,-3
14:46:31.948194,-1,-3,-3,-2,-3,0,2,-3
14:46:31.971183,2,0,-1,1,1,-2,3,1
14:46:31.971183,2,-3,2,2,1,1,1,0
14:46:31.993175,-2,-2,0,3,0,-1,2,-2
14:46:31.993175,-2,-1,-1,-4,0,1,0,-2
14:46:32.008157,2,-4,-2,-1,0,-1,-1,-5
14:46:32.009157,-3,-3,-3,-3,-1,2,2,1
14:46:32.030160,-4,1,1,-1,1,-4,-3,-2
14:46:32.031143,0,-3,-3,0,0,-1,1,0
14:46:32.053129,1,0,2,1,0,-1,0,2
14:46:32.053129,-1,0,-2,-2,0,2,-2,-2
14:46:32.068120,-3,1,-1,-1,0,-2,-3,-3
14:46:32.068120,1,3,-2,0,0,-1,-3,0
14:46:32.090145,-5,-2,-3,-2,-2,1,-3,-1
14:46:32.091106,1,-2,-3,-2,0,2,1,0
14:46:32.113092,-2,-3,-1,1,-3,-3,0,-3
14:46:32.113092,0,-2,-3,0,1,-1,1,-1
14:46:32.135079,0,-3,-2,1,0,1,-1,-3
14:46:32.136078,5,-1,0,0,0,-5,-1,0
14:46:32.150134,0,0,0,-1,-1,0,-1,1
14:46:32.151069,-3,-1,1,-2,2,-2,2,0
14:46:32.173054,-2,4,-1,-5,1,3,-1,2
14:46:32.173054,2,1,-1,2,1,0,-1,-1
14:46:32.188048,-3,-2,-2,-1,0,1,2,-2
14:46:32.196040,0,-1,0,1,0,-1,1,-3
14:46:32.211032,-1,-1,2,-2,1,-2,-2,-1
14:46:32.211032,-1,1,-1,0,-3,0,1,1
14:46:32.233020,-1,2,-4,0,-1,-2,0,-1
14:46:32.234020,-3,2,-1,-2,-3,1,-1,0
14:46:32.248011,-1,1,0,-4,-1,-2,-1,-1
14:46:32.256003,0,2,1,3,1,-1,1,1
14:46:32.270997,2,1,-3,-3,-2,-1,-2,1
14:46:32.271994,1,-2,-1,5,-1,0,-3,1
14:46:32.296978,0,0,0,-1,-3,-1,0,2
14:46:32.296978,-3,-1,-1,0,1,-1,-2,1
14:46:32.308972,-1,0,0,0,-4,1,0,-1
14:46:32.314969,-1,-3,-3,-2,0,-2,-2,-1
14:46:32.330956,-1,0,0,-1,-2,-3,-1,-1
14:46:32.330956,-1,-2,-1,-2,-2,-1,2,-1
14:46:32.352942,-1,-3,-3,-1,1,1,-3,-4
14:46:32.352942,-2,-2,-2,-1,1,-3,-1,2
14:46:32.367934,-2,-3,0,2,-2,-1,-1,0
14:46:32.375929,1,2,3,-1,0,-2,-3,0
14:46:32.389923,0,-1,-2,-3,0,-1,-1,0
14:46:32.390920,0,-1,-1,-1,0,-3,0,-1
14:46:32.412906,-1,-1,-2,-1,-4,0,1,-4
14:46:32.413906,-3,-2,0,-1,-1,-1,0,-3
14:46:32.427897,-1,-3,-1,-4,-1,0,-4,0
14:46:32.434895,1,0,-2,-1,-1,1,2,-3
14:46:32.449889,-1,-1,-1,-1,-2,-2,-2,0
14:46:32.450882,0,0,-1,-4,-1,0,-1,0
14:46:32.472870,1,-3,-1,-1,1,1,0,1
14:46:32.473869,-3,2,-3,-2,-2,-2,-2,0
14:46:32.487860,-2,1,3,1,0,-1,-1,-2
14:46:32.495854,-7,-1,-3,-2,-3,-1,-4,-3
14:46:32.510847,3,-2,-2,-1,-1,0,0,-1
14:46:32.510847,-3,-1,-1,-3,0,-2,-1,-1
14:46:32.532832,0,-1,4,3,1,-1,-1,-3
14:46:32.533832,-2,-2,2,-1,-1,-1,-1,-4
14:46:32.555820,0,0,-1,-3,1,-2,-2,-5
14:46:32.555820,-3,0,2,-2,0,-1,-3,-2
14:46:32.570807,-2,0,-2,-1,1,-2,-3,-3
14:46:32.570807,-5,0,0,-3,1,-2,-1,-1
14:46:32.592796,1,-2,1,-2,0,1,-2,1
14:46:32.593795,-1,0,2,0,0,-2,1,0
14:46:32.608785,3,1,2,-1,1,2,-1,-4
14:46:32.615779,-2,-2,-3,0,-1,-3,-2,1
14:46:32.645765,-2,0,-2,-2,-2,0,0,-1
14:46:32.646762,-1,-2,0,-3,-3,1,-2,0
14:46:32.668748,1,0,-4,-2,-2,-2,1,2
14:46:32.668748,2,2,-4,-1,-1,-3,-2,-1
14:46:32.676746,1,-1,3,2,-1,0,0,1
14:46:32.676746,-3,-1,1,1,-3,-4,0,3
14:46:32.697732,-3,0,0,1,0,-1,-3,1
14:46:32.698731,-2,3,-2,-1,1,0,-1,-2
14:46:32.713723,-1,0,0,-1,0,1,-1,-3
14:46:32.720718,-4,2,1,2,-2,0,-1,1
14:46:32.735709,-1,-1,-1,1,-2,-1,0,2
14:46:32.735709,0,-1,0,-1,1,1,1,1
14:46:32.758692,0,0,0,-1,-2,-2,0,0
14:46:32.759692,-3,-2,-2,-2,-2,0,2,-4
14:46:32.773683,-1,-1,-3,-6,0,0,0,0
14:46:32.780678,1,-3,1,-2,-3,1,2,-3
14:46:32.795672,2,0,-1,-1,-5,-2,-1,-1
14:46:32.796671,-3,-1,2,-4,-1,-1,-3,-1
14:46:32.818654,0,-1,0,1,0,-3,-1,0
14:46:32.818654,0,0,1,0,0,-2,-1,1
14:46:32.833648,-1,-3,-2,-3,-2,0,0,-2
14:46:32.840643,1,2,-1,-1,-1,-1,-1,-1
14:46:32.855634,-1,0,-1,0,-1,0,-3,0
14:46:32.856633,-2,0,1,1,1,-1,5,-2
14:46:32.878618,-1,-2,0,-3,0,-1,1,-4
14:46:32.878618,-2,0,-1,-3,-1,1,-1,0
14:46:32.893611,0,1,-1,0,-3,0,-1,0
14:46:32.900606,0,0,0,0,0,-1,-1,1
14:46:32.915594,-4,-2,-2,-2,0,-2,0,3
14:46:32.916596,1,-4,1,1,2,-3,2,1
14:46:32.938583,-2,1,0,-1,-3,-4,-1,-1
14:46:32.938583,-1,-1,1,-4,2,2,0,-2
14:46:32.953573,2,-2,0,2,-1,0,-3,0
14:46:32.968561,1,-1,-2,-1,-1,-3,1,-2
14:46:32.983552,-1,-2,-5,1,1,0,0,0
14:46:32.983552,-3,1,2,-1,-1,0,-1,0
14:46:32.998546,0,-2,-1,-2,0,-2,-2,0
14:46:32.998546,0,-1,-1,-1,0,0,0,-2
14:46:33.013536,-2,-1,1,-2,-1,-2,2,-1
14:46:33.020532,1,-2,1,-3,-2,-4,-2,-1
14:46:33.035523,3,-1,-5,-2,-1,-2,2,0
14:46:33.036521,1,0,0,0,0,-2,0,-2
14:46:33.065504,-1,-1,-1,-2,3,0,0,1
14:46:33.066503,-1,-3,0,0,-5,-1,0,0
14:46:33.073499,1,-5,2,-1,-2,-3,-2,-1
14:46:33.080494,0,-2,-1,-1,1,1,0,1
14:46:33.095486,-1,-1,-2,2,1,-1,-1,-2
14:46:33.096485,-2,-3,1,-1,-2,0,1,-2
14:46:33.118469,1,0,0,1,-3,1,0,-1
14:46:33.118469,2,-1,1,2,-2,1,1,-1
14:46:33.133462,-1,-2,0,0,0,-1,-5,-2
14:46:33.140457,2,-1,-4,-2,0,0,0,-2
14:46:33.155448,1,-1,-1,-1,0,-1,-2,-4
14:46:33.156448,-1,2,1,0,-5,-1,1,0
14:46:33.178434,-1,-1,-1,-3,3,-1,-4,-2
14:46:33.186428,0,-1,0,-2,0,0,0,-2
14:46:33.200420,-2,-3,-4,3,-1,-1,1,0
14:46:33.201420,1,0,2,-2,-2,0,-2,1
14:46:33.215411,0,0,-2,-1,-1,0,0,-1
14:46:33.216410,0,0,-1,1,-3,0,0,0
14:46:33.238398,4,-1,2,2,3,5,0,5
14:46:33.238398,-3,-3,-2,0,-1,-2,0,0
14:46:33.260382,-1,-2,-1,-1,-1,0,-1,-3
14:46:33.261380,-1,-2,-2,-2,-1,0,-3,-1
14:46:33.277370,-2,0,1,-1,-1,-2,-1,-1
14:46:33.277370,-4,-2,-1,-1,1,1,2,0
14:46:33.298360,-1,1,2,-2,-3,-4,-1,-3
14:46:33.298360,-1,-1,0,-3,-2,0,-2,0
14:46:33.320346,-1,-1,-1,-2,-1,0,0,-3
14:46:33.321345,-3,-2,-3,-1,-1,-1,-1,-1
14:46:33.335334,-2,-1,1,0,-2,-1,0,-1
14:46:33.336333,0,0,3,-2,0,-1,-1,-1
14:46:33.360319,1,-2,-3,-2,-3,-3,-2,-4
14:46:33.360319,-1,0,-1,0,-3,0,-2,2
14:46:33.380313,-1,-2,2,0,0,-1,-1,-4
14:46:33.381306,1,-1,-2,-2,1,0,-2,0
14:46:33.395300,3,2,0,1,-3,4,0,0
14:46:33.396297,0,-2,-2,-1,2,-2,0,1
14:46:33.418285,0,1,-3,-4,-13,-3,-1,-2
14:46:33.419283,0,-3,-5,-4,1,0,-1,0
14:46:33.441269,1,0,3,10,20,6,-1,1
14:46:33.442269,-2,-3,0,-4,-3,-5,-6,-2
14:46:33.456262,-2,2,-2,4,3,0,0,0
14:46:33.463257,0,-1,-3,-3,2,1,0,1
14:46:33.479245,-3,-1,-1,-1,-2,-4,2,-1
14:46:33.479245,-3,3,9,12,7,3,0,1
14:46:33.500234,1,-2,-7,-2,-2,3,1,0
14:46:33.501234,-1,3,1,0,3,3,2,6
14:46:33.517221,-1,-4,-9,8,-5,-3,1,-3
14:46:33.523220,-3,-2,-1,-5,2,-3,-5,-2
14:46:33.538211,-1,4,-3,5,3,1,3,3
14:46:33.539208,-3,-1,-3,-1,6,6,1,2
14:46:33.560196,3,5,-2,-9,0,1,1,-1
14:46:33.561196,-1,0,-1,-1,-1,0,0,2
14:46:33.577185,-1,3,12,13,5,4,0,1
14:46:33.583180,2,-1,-21,-13,24,4,3,3
14:46:33.598173,-5,-2,15,33,22,3,-4,-2
14:46:33.599172,4,2,4,-15,-5,-5,5,6
14:46:33.620161,-4,-5,1,6,-2,6,-1,-2
14:46:33.621158,2,1,8,8,-64,-5,-1,3
14:46:33.636149,3,-1,-3,7,9,5,1,4
14:46:33.644143,0,-1,5,-7,-30,0,2,-4
14:46:33.666128,2,4,4,10,1,3,2,3
14:46:33.666128,2,2,2,-6,-13,-10,1,1
14:46:33.681120,1,-6,0,-6,-54,-16,-2,-1
14:46:33.681120,6,6,-28,-126,-89,-9,5,4
14:46:33.696115,-12,-13,8,69,96,-5,-8,-9
14:46:33.703109,-6,-5,26,-15,-36,12,-3,1
14:46:33.718100,6,10,-3,-115,-128,-22,5,7
14:46:33.719096,-7,-14,-13,21,-56,-27,-9,-3
14:46:33.741083,4,11,47,72,-11,88,12,7
14:46:33.741083,9,8,-34,-39,-128,-66,7,8
14:46:33.756073,-8,-14,6,41,127,54,-7,-5
14:46:33.763071,16,29,28,-128,15,27,18,13
14:46:33.778062,-1,-11,-2,36,-128,-8,0,2
14:46:33.779062,15,18,-10,-80,-36,127,21,14
14:46:33.801045,23,35,-51,-128,-128,-67,15,13
14:46:33.801045,0,25,127,127,127,88,-9,-1
14:46:33.816039,9,-39,-18,127,-128,-29,7,18
14:46:33.823034,34,63,22,-116,-128,87,39,34
14:46:33.838025,-12,-26,-99,-88,-128,-97,-17,-5
14:46:33.839022,15,39,-8,89,-103,69,31,13
14:46:33.861010,-12,20,2,119,127,-78,-18,-22
14:46:33.861010,-32,-128,-128,74,-43,-102,-33,-6
14:46:33.876999,45,66,35,-128,-128,62,45,43
14:46:33.882996,5,-11,-28,127,-42,-1,-6,12
14:46:33.897987,35,77,-74,120,-128,-47,27,15
14:46:33.898987,-33,-81,-53,-91,59,-20,-27,-20
14:46:33.920974,24,33,-7,-35,-24,13,21,22
14:46:33.920974,16,19,17,10,-13,33,14,9
14:46:33.935964,-8,-37,-8,108,121,-11,-10,-9
14:46:33.943958,-10,-29,17,127,127,127,-4,-8
14:46:33.957950,19,40,3,-128,-57,-6,7,10
14:46:33.958948,25,114,117,92,82,19,16,4
14:46:33.987932,-12,-6,-4,127,127,20,-7,-10
14:46:33.988929,31,29,48,124,-120,-128,13,24
14:46:33.995928,4,49,39,103,43,57,-1,-4
14:46:34.002922,33,40,53,127,127,52,6,11
14:46:34.017913,12,36,85,127,-7,-7,-5,-5
14:46:34.018913,-31,-120,-89,-128,127,-92,-12,-9
14:46:34.040898,-26,-94,-98,-100,-128,-49,-22,-4
14:46:34.040898,-6,19,-21,127,11,60,8,1
14:46:34.062883,36,99,91,127,116,-15,22,19
14:46:34.063884,-19,-14,-57,127,-128,-69,-14,-14
14:46:34.078876,-88,-128,-93,-128,-128,-32,-35,-39
14:46:34.079876,40,110,55,127,-128,31,10,10
14:46:34.100862,2,-33,-27,96,-128,-78,-11,0
14:46:34.100862,-25,-57,-28,-128,-77,-1,-13,-17
14:46:34.122848,1,17,20,16,-128,0,-4,-5
14:46:34.123847,-3,-23,-27,-128,-128,-35,-3,4
14:46:34.137839,-74,-118,-75,-128,-128,-3,-35,-39
14:46:34.138837,46,97,77,127,127,-13,15,16
14:46:34.160825,30,65,31,39,-35,-47,12,19
14:46:34.161825,-49,-107,-67,-42,-128,-9,-24,-23
14:46:34.182809,9,63,63,37,96,127,11,-5
14:46:34.183808,-6,15,-4,-72,-128,-101,-8,-4
14:46:34.198800,2,-38,-113,-128,-39,-87,4,12
14:46:34.205797,59,127,127,-7,127,104,19,17
14:46:34.220788,2,21,5,-128,127,24,5,8
14:46:34.221785,-38,-64,-27,-128,17,-67,-26,-25
14:46:34.243771,-2,17,9,-36,-128,-128,-17,-9
14:46:34.243771,14,43,52,93,127,-29,-3,4
14:46:34.257764,-27,-93,-72,-128,37,5,-11,-13
14:46:34.265760,-22,-106,-107,-128,1,-68,-10,-1
14:46:34.280751,-15,4,18,-92,127,64,-15,-24
14:46:34.281750,63,127,105,-128,-128,-89,18,29
14:46:34.302737,30,53,22,127,127,18,15,14
14:46:34.303741,-3,-43,-51,67,-128,-76,-4,4
14:46:34.326721,3,46,57,-54,-77,28,-10,-16
14:46:34.327722,-45,-104,-78,-10,-128,8,0,-13
14:46:34.341710,78,127,127,-128,127,-4,16,22
14:46:34.343711,13,63,8,124,-128,-64,-4,1
14:46:34.363696,5,15,60,-128,-128,41,5,6
14:46:34.363696,5,19,-30,91,127,-103,-5,0
14:46:34.378691,34,126,91,-128,-128,-128,1,10
14:46:34.385686,-69,-94,-55,-8,-68,-29,-26,-23
14:46:34.409668,-20,-92,-54,-128,13,107,0,-8
14:46:34.410668,38,84,71,-9,127,-24,15,4
14:46:34.430658,-56,-105,-38,-36,-128,127,-8,-21
14:46:34.431654,50,127,102,-89,-128,-98,5,20
14:46:34.445648,17,61,104,-26,79,-55,8,-9
14:46:34.446645,27,98,53,-120,-128,-108,-1,13
14:46:34.460639,11,23,-10,127,127,-19,7,6
14:46:34.461639,21,25,0,-128,-128,-95,1,14
14:46:34.483627,-23,-56,-43,3,-117,-82,-19,-9
14:46:34.483627,15,41,2,-128,48,-89,0,3
14:46:34.498612,3,10,13,-94,21,-64,-5,1
14:46:34.505611,2,-3,-29,-9,-112,-37,0,4
14:46:34.528594,-2,6,4,-128,-48,-20,-4,-4
14:46:34.528594,0,-4,-9,-7,-7,-2,-2,-2
14:46:34.544584,2,1,-4,13,21,-5,-1,2
14:46:34.544584,1,-2,1,-4,-12,-3,-4,-2
14:46:34.558578,-5,0,-1,1,-4,-4,0,-2
14:46:34.565574,21,9,3,-9,-5,-4,-3,-5
14:46:34.588558,-46,-12,2,-1,7,8,-4,9
14:46:34.588558,13,1,-3,-15,-14,-14,-3,-7
14:46:34.603551,36,28,19,12,13,2,3,-18
14:46:34.604548,-96,-63,-31,-25,-19,-11,-19,-33
14:46:34.618538,19,31,13,6,0,3,9,-23
14:46:34.626534,31,1,7,16,28,35,78,49
14:46:34.640531,-34,-13,-12,-18,-26,-30,-64,-27
14:46:34.641525,73,-14,-2,4,5,15,-8,30
14:46:34.663510,96,58,17,13,13,40,74,15
14:46:34.664509,-116,-44,-30,-21,-27,-81,-128,-75
14:46:34.678504,32,18,13,20,27,-19,127,88
14:46:34.693492,105,-11,-33,-34,-34,-5,127,63
14:46:34.700490,-34,-7,-8,-16,-42,-96,-124,-104
14:46:34.701489,40,11,5,8,22,53,-58,0
14:46:34.723476,-5,6,-9,36,-19,-31,108,-15
14:46:34.724472,-10,-5,-17,-128,-12,-2,80,20
14:46:34.738466,-49,-63,-18,-128,-123,-5,-23,5
14:46:34.746459,-64,-2,19,-106,-28,5,-46,-24
14:46:34.760453,-13,-49,-7,37,14,-13,-33,-18
14:46:34.761451,3,54,12,-72,-79,-17,-12,7
14:46:34.783439,-48,-1,24,-128,-128,-84,-27,-33
14:46:34.784438,44,-38,5,-28,51,13,-1,8
14:46:34.798429,9,26,25,127,-51,13,9,16
14:46:34.805423,-2,5,-28,117,-128,-40,8,5
14:46:34.820416,-16,9,-15,-96,127,44,18,31
14:46:34.821412,31,86,4,89,112,57,14,4
14:46:34.843398,-51,53,18,-8,-128,-10,-6,6
14:46:34.844401,17,-16,-17,-15,-54,27,-23,-39
14:46:34.859389,95,42,54,95,61,-20,19,110
14:46:34.865388,2,-17,56,127,127,-4,-35,-11
14:46:34.880378,-43,-4,2,26,113,7,6,-12
14:46:34.881378,26,0,-23,-128,-128,-23,-3,4
14:46:34.911359,-81,-32,12,18,9,31,-4,-33
14:46:34.912359,7,9,-2,50,-13,-8,-1,-2
14:46:34.918352,127,24,26,90,52,19,42,62
14:46:34.926348,-26,30,5,-14,-128,-24,8,-20
14:46:34.940341,7,-4,-86,-128,-72,-35,-39,38
14:46:34.941338,-1,3,-6,-3,-113,-4,13,-4
14:46:34.963324,-63,-23,22,36,30,8,6,-30
14:46:34.964323,-8,-26,5,109,88,35,51,37
14:46:34.978315,127,27,10,19,44,43,23,56
14:46:34.986312,15,5,-15,-33,-128,-41,2,-1
14:46:35.009298,-15,-20,-66,75,-128,10,-6,-7
14:46:35.010297,-3,8,12,-43,81,15,-1,-5
14:46:35.023290,-22,-32,6,14,-13,9,-15,7
14:46:35.024289,49,-3,-8,-24,-61,-3,0,5
14:46:35.038280,-7,22,26,58,41,37,-1,-10
14:46:35.046273,-11,-14,-105,-128,-128,-72,-13,-10
14:46:35.061263,3,5,8,85,10,42,7,1
14:46:35.061263,0,1,30,103,79,7,3,3
14:46:35.083253,-18,3,-17,-9,-29,-2,-9,-14
14:46:35.084252,-27,-2,9,39,-128,-25,-19,-23
14:46:35.105238,-2,-2,-44,-12,127,34,30,18
14:46:35.106235,3,-17,-4,-38,127,10,0,5
14:46:35.120230,-4,6,13,-128,-128,-19,6,2
14:46:35.121227,-16,-12,-1,84,108,15,-4,-10
14:46:35.143215,-1,-7,-4,29,94,11,6,6
14:46:35.144213,-7,-8,-30,-12,5,-13,0,-3
14:46:35.165202,-18,-19,10,114,35,-2,-10,-3
14:46:35.166199,-2,-6,12,127,127,0,8,19
14:46:35.180193,0,2,-1,24,76,12,5,0
14:46:35.181191,0,2,-30,-14,-102,0,1,1
14:46:35.203179,-5,3,6,-34,-110,-8,6,3
14:46:35.204178,0,-4,-28,3,-80,-15,-6,-1
14:46:35.227161,1,-1,-60,-67,-12,-3,14,10
14:46:35.227161,-16,21,5,9,-1,5,1,-9
14:46:35.241152,1,7,5,19,91,-5,3,-3
14:46:35.241152,-27,-25,5,40,127,-8,-20,-24
14:46:35.263141,-40,-10,-60,-76,-128,-32,1,-10
14:46:35.264138,4,-1,-18,33,8,0,-2,-3
14:46:35.286124,-3,1,-29,-128,-121,-23,0,-5
14:46:35.286124,1,2,14,85,127,5,-2,0
14:46:35.300115,-11,-8,-24,-21,67,1,-9,-10
14:46:35.301114,-3,1,34,-64,-40,-5,-6,-16
14:46:35.323104,-4,-16,-7,-5,1,-6,-5,7
14:46:35.324101,-6,1,-7,-41,-100,-22,-10,-13
14:46:35.346090,-2,2,33,127,95,20,0,-4
14:46:35.346090,-8,-8,-9,20,-51,-18,-4,-6
14:46:35.361082,3,5,11,9,29,7,1,2
14:46:35.362080,0,-2,-13,28,-19,16,3,1
14:46:35.383066,2,2,12,23,16,-1,-2,3
14:46:35.384066,-1,-1,-4,17,-68,-5,-2,-3
14:46:35.406050,4,-6,17,17,-20,3,3,5
14:46:35.406050,-5,-1,-10,-128,-56,-4,4,0
14:46:35.421040,-8,-8,-2,25,37,3,-7,-14
14:46:35.421040,-14,-2,-13,46,127,11,8,4
14:46:35.444026,-20,-16,-14,-30,15,-15,-15,-14
14:46:35.445029,3,6,11,49,28,10,5,3
14:46:35.473010,-8,-8,6,31,-80,-11,-7,-7
14:46:35.474008,-13,-3,6,22,-28,-11,-4,-5
14:46:35.481006,4,0,-7,2,0,2,2,2
14:46:35.488002,-7,-2,7,70,47,-1,2,-1
14:46:35.502992,-10,-12,-11,41,18,-15,-3,-5
14:46:35.503991,17,1,12,36,21,19,9,17
14:46:35.526979,-14,3,0,7,13,2,0,-5
14:46:35.526979,-2,4,6,-9,52,-1,2,0
14:46:35.547962,-5,-5,-9,-12,82,0,-2,-2
14:46:35.548965,3,6,1,13,35,11,2,1
14:46:35.562955,3,3,5,-44,-34,-5,0,2
14:46:35.563954,-10,-8,-4,15,28,0,-1,-6
14:46:35.585938,3,6,5,0,19,-1,-2,-4
14:46:35.586942,3,0,-23,-64,-49,-8,8,14
14:46:35.609924,-4,0,-1,9,12,2,-4,-3
14:46:35.609924,-4,0,3,8,25,7,-1,-2
14:46:35.622917,-2,-3,-2,-2,36,2,-3,-2
14:46:35.623915,-10,-7,-3,0,1,2,-1,-1
14:46:35.646903,2,3,-2,-112,-107,-5,1,3
14:46:35.646903,-5,1,-5,10,20,2,-3,-2
14:46:35.660892,-6,-4,4,25,-1,-1,0,-1
14:46:35.661895,3,5,10,97,127,19,5,2
14:46:35.682880,0,-5,-2,-22,69,-9,-8,-5
14:46:35.683880,-4,-4,1,10,33,11,0,-6
14:46:35.705867,0,-1,2,-2,-22,1,2,1
14:46:35.705867,-5,-1,-1,0,-24,2,1,0
14:46:35.720857,0,-1,-2,-3,-55,-8,-5,-6
14:46:35.720857,-12,2,-2,42,18,-6,-6,-12
14:46:35.743841,4,3,2,3,8,4,4,3
14:46:35.743841,-15,-5,-1,-3,-2,-3,-4,-7
14:46:35.765829,-9,-2,1,-12,-30,-9,-4,-9
14:46:35.765829,6,-3,-27,-47,17,4,0,10
14:46:35.780820,-6,-4,6,28,16,-1,-7,-6
14:46:35.787815,-1,0,-6,-39,-71,-18,-5,-1
14:46:35.803803,0,-4,1,10,15,4,1,2
14:46:35.803803,3,-4,-1,7,3,3,6,1
14:46:35.825790,2,4,2,0,-5,4,0,2
14:46:35.827788,-3,3,-2,-3,-8,-4,-4,-4
14:46:35.847777,10,2,1,-3,-1,-3,-2,2
14:46:35.848776,-5,-3,0,0,1,1,-3,-6
14:46:35.863766,-1,-5,-7,1,-5,-2,1,-1
14:46:35.863766,2,4,0,37,37,17,4,0
14:46:35.885755,3,-2,-1,10,-18,0,0,3
14:46:35.886752,6,-1,-3,-1,24,12,-13,1
14:46:35.908738,-1,2,3,-2,-1,-2,-4,-4
14:46:35.909738,0,-11,-2,1,28,-12,-4,-2
14:46:35.930727,-8,-6,-2,-3,-5,-7,-4,-5
14:46:35.931726,0,0,2,7,-7,-1,-2,2
14:46:35.945715,2,-1,-1,21,13,0,-1,2
14:46:35.946715,-1,0,-1,4,9,-1,-7,-1
14:46:35.968701,-7,-2,-2,-36,-40,-1,-3,-4
14:46:35.968701,5,0,0,15,78,5,2,4
14:46:35.983692,-10,-6,1,-1,42,-5,-8,-12
14:46:35.983692,1,-1,-1,-10,11,-7,2,0
14:46:36.005680,-12,-5,-1,-1,-6,0,3,-4
14:46:36.006684,-3,5,-2,-1,-5,0,-1,-4
14:46:36.028666,-3,3,-2,18,5,3,-1,0
14:46:36.028666,3,-2,0,15,-7,-4,0,5
14:46:36.043654,1,0,1,-8,-78,-3,2,2
14:46:36.044654,-2,-6,-1,31,46,4,-3,0
14:46:36.065643,0,1,1,-2,26,2,2,3
14:46:36.066641,-6,-6,-1,3,26,-2,-11,-10
14:46:36.088627,-9,-4,-3,-7,-15,-5,-4,-6
14:46:36.088627,-12,-2,-6,-10,-3,-2,-3,-4
14:46:36.103619,6,3,-1,6,-9,2,-3,0
14:46:36.104619,-1,-2,4,0,-49,-8,-1,-4
14:46:36.126603,-3,-1,0,11,19,3,-2,-2
14:46:36.126603,2,-1,-1,-82,-42,-3,-1,-2
14:46:36.148589,-7,-1,-1,10,0,0,-2,-6
14:46:36.148589,-2,-2,-2,-7,-1,4,8,4
14:46:36.163582,-6,-1,2,24,-40,-2,0,-5
14:46:36.163582,0,0,-5,16,-18,-9,0,3
14:46:36.186568,3,2,4,3,-2,-3,2,4
14:46:36.186568,-2,1,0,-11,-35,2,-3,-4
14:46:36.209552,4,-4,-1,-1,12,-2,0,-2
14:46:36.209552,-1,-2,2,2,1,-4,-1,3
14:46:36.223543,2,3,10,56,6,6,0,3
14:46:36.223543,-1,-4,-5,0,-1,-3,0,-3
14:46:36.253523,10,2,2,-7,-8,-2,3,15
14:46:36.254523,-4,-4,0,5,36,-4,-3,-4
14:46:36.268517,-11,-1,-4,-5,34,5,-4,-10
14:46:36.268517,-5,0,-2,2,-1,-8,-7,-12
14:46:36.283505,3,0,-4,3,9,1,-1,1
14:46:36.283505,-2,1,0,3,18,-6,1,-2
14:46:36.305495,10,1,2,4,16,10,5,5
14:46:36.306491,-1,0,-4,-31,-11,-1,0,-1
14:46:36.328480,1,-1,-4,-3,-2,-1,-2,-4
14:46:36.329477,-10,-1,-1,-9,-17,-4,1,-8
14:46:36.343469,-2,2,0,13,3,-4,1,-2
14:46:36.344470,-7,-2,-2,-9,-17,1,1,-1
14:46:36.365457,3,2,-1,0,31,2,4,1
14:46:36.366456,-5,0,-2,3,39,0,-4,-6
14:46:36.388443,1,0,-3,-5,2,3,4,2
14:46:36.388443,1,2,0,-27,-19,-1,-4,1
14:46:36.403431,3,1,-1,16,21,5,1,-1
14:46:36.404433,0,0,0,4,3,0,0,-3
14:46:36.427420,2,0,2,6,-5,11,4,3
14:46:36.427420,-3,0,-3,0,-8,-4,-7,-5
14:46:36.448406,-3,1,-3,-2,-2,1,1,-4
14:46:36.448406,0,-2,-5,-2,-8,0,-2,2
14:46:36.463394,-8,1,4,0,-1,0,0,-6
14:46:36.464393,-9,-2,-7,2,-3,-2,-2,-2
14:46:36.486382,0,0,-4,-1,-7,-3,-1,0
14:46:36.486382,-5,-5,-4,-2,-6,-2,-4,-6
14:46:36.510367,-6,-1,-1,1,-2,2,-2,0
14:46:36.510367,-5,-4,4,6,-3,-4,-3,-1
14:46:36.530354,-6,-4,-3,1,0,1,1,-3
14:46:36.531355,-1,0,-2,-2,-1,2,1,-1
14:46:36.545346,1,-1,-3,1,-2,-2,-4,-1
14:46:36.546345,1,-2,-1,-3,-1,-1,-1,0
14:46:36.568332,-6,3,1,3,-3,0,-4,-7
14:46:36.569331,6,1,0,0,-3,-6,0,-1
14:46:36.583320,0,3,1,2,35,7,3,2
14:46:36.584322,-11,-5,-5,0,24,-3,-9,-8
14:46:36.605306,1,1,-2,-26,-18,0,0,-1
14:46:36.606305,2,0,4,19,-12,5,2,4
14:46:36.628295,-1,-4,-2,3,13,0,1,-3
14:46:36.629292,3,-3,1,-1,0,2,2,1
14:46:36.644285,2,-4,-1,1,-1,0,2,2
14:46:36.644285,1,1,1,-3,3,-1,-4,1
14:46:36.666276,8,1,-1,-1,0,1,8,10
14:46:36.666276,-8,-3,-3,-3,0,1,-4,-7
14:46:36.688257,-1,-1,0,-3,-1,0,0,-1
14:46:36.689256,-2,4,4,10,5,3,0,-1
14:46:36.703248,-5,-5,-5,-4,-1,-1,1,-3
14:46:36.711240,-1,0,-2,-7,0,-5,4,0
14:46:36.727231,-1,-1,-3,9,2,-3,-1,-2
14:46:36.727231,10,8,1,0,0,1,-2,-3
14:46:36.748220,2,3,1,-2,-6,-4,0,0
14:46:36.749218,0,0,1,2,0,-3,-2,-1
14:46:36.770207,4,2,-2,-5,-4,-3,-1,2
14:46:36.771203,-1,-1,1,3,2,1,-2,-3
14:46:36.785197,0,-1,-3,-1,-2,1,4,3
14:46:36.786194,-3,-2,-1,-1,-4,-1,-5,-3
14:46:36.809182,0,0,-3,0,4,0,0,5
14:46:36.810182,-2,-2,-1,-2,3,0,-6,-2
14:46:36.831165,7,1,3,2,1,-3,-5,3
14:46:36.831165,-10,-1,-4,-1,-3,-3,1,-6
14:46:36.846159,1,0,0,0,-1,3,7,1
14:46:36.853155,-2,1,2,-2,-3,-2,-2,-3
14:46:36.868146,2,-3,-1,-3,-2,-2,3,-2
14:46:36.869143,0,-1,-1,-3,2,5,5,0
14:46:36.891129,2,3,3,7,9,1,-1,4
14:46:36.891129,-9,-7,-2,-4,1,-1,-1,-3
14:46:36.906119,2,1,-3,0,-1,4,4,0
14:46:36.906119,-2,1,2,-2,2,0,-3,-3
14:46:36.928109,0,1,-3,-2,-1,-1,-1,0
14:46:36.929105,-3,-1,-1,1,-1,-4,-2,-4
14:46:36.951091,-6,-1,-1,-2,-5,-2,-1,-4
14:46:36.951091,-1,-5,1,1,3,0,0,-4
14:46:36.966082,-2,-1,-3,-1,0,-2,0,-3
14:46:36.966082,2,-2,1,-2,-5,-2,-2,-2
14:46:36.988067,-4,-3,-1,-2,-7,0,-4,-5
14:46:36.988067,4,3,0,0,3,7,2,2
14:46:37.010054,4,-1,-3,-1,-5,-2,-2,-1
14:46:37.011054,4,2,2,4,5,3,-3,-1
14:46:37.026045,-2,1,3,-1,2,-4,-4,0
14:46:37.026045,-7,-6,-2,-4,-4,-7,-6,-4
14:46:37.048032,-6,-1,-2,-2,-3,0,0,-1
14:46:37.048032,1,-3,-1,0,0,2,-1,2
14:46:37.070033,-4,-1,-4,-1,0,-1,-1,-8
14:46:37.071016,0,0,1,2,1,3,1,1
14:46:37.086016,-5,-1,-1,-3,-1,-2,-5,-8
14:46:37.086016,-2,-2,-3,1,2,1,-1,0
14:46:37.109993,0,-4,1,-4,1,-1,-2,2
14:46:37.109993,0,-1,-2,0,2,-1,0,3
14:46:37.130980,-2,-2,-4,-2,-2,-2,0,-2
14:46:37.130980,-3,1,0,-1,2,0,-3,-6
14:46:37.145970,-5,-1,0,-2,-13,-4,-1,2
14:46:37.145970,3,1,-1,0,3,0,0,-1
14:46:37.167960,-6,-4,-3,-3,-4,1,-3,-2
14:46:37.168956,-4,0,0,-1,-3,-2,-6,-4
14:46:37.190943,1,-3,-2,-3,0,-1,1,0
14:46:37.190943,-2,-2,2,7,6,-1,-1,3
14:46:37.205933,-5,-4,0,0,1,-5,-4,-4
14:46:37.205933,-4,-2,-3,-4,-7,-3,1,0
14:46:37.228922,1,-2,0,1,-2,-2,0,-2
14:46:37.228922,2,-1,-3,-4,-2,-3,-4,-1
14:46:37.250905,3,0,1,-1,-6,-1,0,2
14:46:37.250905,2,0,-2,0,-3,-4,-1,0
14:46:37.272895,0,1,1,-2,0,-1,0,1
14:46:37.273891,-7,-3,1,1,-1,-5,1,-1
14:46:37.288882,-1,-2,-2,-2,-12,-1,-1,0
14:46:37.288882,0,-2,0,2,5,-4,-5,-4
14:46:37.310869,-1,-1,1,-4,-1,0,2,2
14:46:37.310869,1,2,2,0,-4,-6,-1,-1
14:46:37.325860,0,-3,0,-1,1,1,1,-1
14:46:37.332855,3,0,-1,2,-2,-1,-4,0
14:46:37.347846,-3,-5,-1,-1,-2,-4,-2,0
14:46:37.348845,1,-2,-3,0,-1,0,1,1
14:46:37.370834,-2,4,-1,1,2,2,2,-1
14:46:37.370834,-2,-2,-2,-5,1,-3,-1,-1
14:46:37.385825,0,0,1,0,-3,0,-1,-1
14:46:37.393821,2,0,-3,-3,-3,0,-1,-2
14:46:37.407810,3,-3,-1,-1,-4,-7,-3,-3
14:46:37.409808,-1,1,2,-1,-1,3,4,2
14:46:37.430797,-2,-4,-4,0,0,-3,-4,-2
14:46:37.431794,-2,-4,-1,-5,-3,0,-6,-11
14:46:37.445788,-1,0,0,0,-1,-1,-1,-1
14:46:37.453783,-3,1,0,-3,1,0,2,-1
14:46:37.468770,-1,-4,1,-2,6,3,-1,2
14:46:37.468770,-4,-1,-3,-2,-1,-3,0,1
14:46:37.490759,-4,-2,0,1,3,-1,0,0
14:46:37.491759,-1,-5,-3,0,-3,2,-3,1
14:46:37.505750,-2,-3,-2,0,-3,-1,0,-1
14:46:37.513745,-3,-1,0,4,1,-2,0,-3
14:46:37.528734,2,-2,0,-2,0,-3,2,-3
14:46:37.529736,-4,1,1,-3,-3,2,-2,0
14:46:37.550722,-3,-5,-2,-1,-3,-4,-5,-2
14:46:37.551722,-1,0,-3,-2,3,2,0,-3
14:46:37.565713,-6,-4,-1,-2,-4,-3,1,-4
14:46:37.572713,0,-3,-1,-2,-3,-4,-3,-6
14:46:37.588696,-1,1,2,2,-3,-3,-3,0
14:46:37.588696,-5,0,-1,-4,6,1,2,-1
14:46:37.610683,5,0,-1,2,3,-1,0,1
14:46:37.611685,0,-2,-1,-3,3,0,0,-4
14:46:37.626674,3,-1,0,1,-2,2,1,2
14:46:37.633671,2,-5,-1,0,0,-1,-2,-1
14:46:37.648659,-1,0,-1,-2,-4,-3,0,0
14:46:37.648659,-1,2,-1,0,-3,-5,-5,-2
14:46:37.678644,-1,-2,-1,-3,0,2,-1,1
14:46:37.679641,-3,0,-1,-5,-3,4,0,-1
14:46:37.685639,-1,-1,-1,1,3,1,1,3
14:46:37.693634,-1,-1,-6,0,4,1,-4,3
14:46:37.708623,-1,1,-1,-2,0,1,1,1
14:46:37.710620,-1,3,-2,-1,0,-1,0,-4
14:46:37.730610,9,0,-3,0,-8,0,0,3
14:46:37.731613,-2,3,0,-1,0,-1,3,-2
14:46:37.745602,0,3,1,2,2,0,2,-3
14:46:37.753597,-1,-2,-1,1,2,-2,-1,0
14:46:37.768587,6,2,2,-1,0,-2,0,2
14:46:37.768587,0,-3,-3,-6,-1,-3,-2,-1
14:46:37.790573,-7,-1,-1,1,1,1,1,-1
14:46:37.791572,-3,0,0,-2,-2,-1,1,3
14:46:37.805564,2,-1,-1,-1,0,-1,-1,-2
14:46:37.813560,-6,-7,-6,-1,-2,-3,-4,-1
14:46:37.828551,9,4,2,-1,-2,-2,2,1
14:46:37.828551,-1,-1,1,-1,9,2,-2,-3
14:46:37.851535,-2,-2,-1,-3,-3,-2,-2,-4
14:46:37.851535,7,3,0,0,2,-1,4,3
14:46:37.873519,0,-1,3,0,-1,-3,0,2
14:46:37.874522,-3,2,-2,-2,1,-1,-3,-4
14:46:37.888510,-1,-2,0,0,-7,-6,-2,-1
14:46:37.888510,-3,-1,-4,1,5,-2,-3,1
14:46:37.910499,0,2,-1,0,-1,-1,-1,3
14:46:37.911498,3,2,0,-1,-2,-2,2,0
14:46:37.933484,-8,-4,-1,-3,-3,-3,-2,-6
14:46:37.933484,5,3,2,0,-1,0,-1,-1
14:46:37.948474,-3,2,0,0,-3,-1,-3,-6
14:46:37.948474,0,-3,-2,-3,-4,0,-2,-3
14:46:37.971458,2,0,-3,1,4,0,0,0
14:46:37.971458,0,0,-3,-1,-2,-2,0,-1
14:46:37.993446,1,-2,2,-2,0,0,-5,1
14:46:37.994446,0,-2,-4,-3,-3,0,1,-3
14:46:38.009437,0,-2,-2,0,2,0,1,-3
14:46:38.010436,1,2,-2,-5,-4,-3,2,-1
14:46:38.030425,2,-4,1,-3,-4,-1,0,-2
14:46:38.031424,-9,-4,-8,-3,-2,0,-1,-4
14:46:38.053409,1,-4,-3,-1,-2,-2,-2,-2
14:46:38.054410,-7,-1,-1,-1,-2,2,-3,-7
14:46:38.068401,0,-4,-2,1,-2,2,-2,-6
14:46:38.068401,-3,-2,-1,-2,4,-2,-1,-1
14:46:38.090387,0,-2,-3,-3,0,-1,-1,-2
14:46:38.092386,-4,-1,-1,0,2,0,-1,1
14:46:38.113373,-1,-2,1,-1,-1,-1,-2,1
14:46:38.114373,-5,0,0,-1,-2,2,0,-2
14:46:38.128364,-4,-3,-3,-3,6,2,-2,2
14:46:38.129363,0,1,-1,-1,-6,-7,-2,-1
14:46:38.150350,0,0,-1,2,2,1,-1,1
14:46:38.151350,1,0,0,-1,1,-4,1,3
14:46:38.173336,-1,-2,-3,0,-1,0,-1,-1
14:46:38.173336,-4,1,0,0,0,-1,1,-3
14:46:38.188326,0,1,-1,-2,1,1,-1,-1
14:46:38.188326,-2,-1,-3,-4,-1,-2,0,-1
14:46:38.211310,3,0,0,2,-5,-2,1,2
14:46:38.211310,-1,1,0,-5,0,1,-1,-2
14:46:38.233299,-3,0,-3,0,0,0,-1,-1
14:46:38.233299,0,0,2,-3,1,-3,0,2
14:46:38.248287,0,0,-1,0,0,0,0,-2
14:46:38.255285,-1,4,-1,0,-1,2,1,0
14:46:38.271275,0,-1,1,-3,-3,-2,0,1
14:46:38.271275,-1,0,3,-4,-3,-3,-1,-1
14:46:38.294259,0,-3,-1,0,-4,-3,1,5
14:46:38.294259,0,1,1,1,0,-1,-1,1
14:46:38.309250,-1,-3,-1,-4,-3,-2,0,-1
14:46:38.323240,-3,1,-1,1,-2,-2,-1,0
14:46:38.331235,0,-2,0,-2,2,6,0,1
14:46:38.331235,-1,-1,-1,1,0,-2,0,1
14:46:38.353225,0,-1,-2,-1,-1,-1,-1,-3
14:46:38.354224,1,2,0,-3,-9,2,-2,1
14:46:38.368215,0,-1,-2,3,7,5,1,4
14:46:38.377207,0,1,0,0,-2,1,2,-3
14:46:38.391199,3,-2,-1,-2,-6,-2,-1,-1
14:46:38.391199,5,4,1,1,2,-6,-3,1
14:46:38.413188,-1,-1,-2,-2,0,-2,1,-2
14:46:38.414189,-2,2,-3,-1,-1,-2,1,1
14:46:38.428178,3,3,1,-1,1,-3,1,5
14:46:38.436173,-1,0,-3,-1,-1,0,-3,1
14:46:38.451163,4,0,0,-2,-1,-6,-2,1
14:46:38.451163,-6,2,1,-2,3,-3,-3,0
14:46:38.473150,0,-1,1,2,0,0,-2,-3
14:46:38.474148,-3,0,-3,-1,-2,-1,-1,-2
14:46:38.488141,-2,2,1,1,1,-3,-1,-3
14:46:38.496137,-2,-3,-1,-3,-5,-3,0,0
14:46:38.511124,0,-5,-4,-2,1,-1,-1,-3
14:46:38.511124,-1,0,2,1,-4,-4,-3,1
14:46:38.533110,1,1,3,1,1,-2,1,0
14:46:38.534110,-1,-2,-3,-1,1,-2,-5,-4
14:46:38.548103,-2,2,-2,-2,-1,-2,1,-1
14:46:38.556097,23,-7,0,1,1,1,4,4
14:46:38.571088,0,0,-2,-2,-1,0,2,3
14:46:38.571088,-2,3,0,1,0,-2,0,1
14:46:38.594073,-3,-1,1,-1,-1,0,0,0
14:46:38.594073,-5,-1,-3,0,-2,-1,0,-1
14:46:38.610063,-1,-1,1,-6,-4,-2,-2,3
14:46:38.616059,-1,1,0,0,3,-2,-4,-2
14:46:38.631049,-3,-1,-1,1,-8,2,0,0
14:46:38.631049,0,-2,-1,-15,-18,-1,0,3
14:46:38.653039,-1,1,-2,5,6,2,-1,1
14:46:38.654036,0,-2,-1,3,0,1,3,-5
14:46:38.669034,-2,0,-1,2,5,3,2,-1
14:46:38.677025,0,-1,0,-2,1,1,-2,-2
14:46:38.691013,4,0,2,-2,-2,-2,-1,0
14:46:38.691013,3,2,-2,0,2,3,2,4
14:46:38.713998,-1,-2,1,1,1,0,0,-2
14:46:38.713998,11,2,-2,1,-3,-5,-2,-1
14:46:38.728992,0,0,0,1,-4,-2,2,2
14:46:38.735988,-3,-5,-1,-4,-1,1,-2,-2
14:46:38.750976,0,1,-3,-3,-4,-3,0,-1
14:46:38.751976,1,-1,-1,-4,-2,-2,-1,0
14:46:38.772964,-1,3,2,3,1,1,-3,2
14:46:38.773963,2,-3,-2,-3,3,0,0,1
14:46:38.795950,2,1,1,2,-6,0,-1,3
14:46:38.796946,-7,2,1,2,0,2,-3,-3
14:46:38.810939,1,-4,0,-2,2,4,-2,0
14:46:38.811938,-3,-1,-1,-3,0,-3,-2,-2
14:46:38.832927,-3,-3,-1,-2,0,-2,-2,-4
14:46:38.833924,-3,-4,0,-2,-1,-3,-3,-2
14:46:38.848916,1,2,0,-1,0,0,0,2
14:46:38.855915,-2,0,0,2,-1,1,1,-1
14:46:38.870900,1,-2,-1,-1,-1,-2,3,-1
14:46:38.870900,0,-1,2,5,5,4,2,4
14:46:38.893887,-5,-1,-2,-1,0,-2,-3,-3
14:46:38.893887,1,-3,-1,0,5,1,1,-1
14:46:38.915875,-1,2,-1,-1,-3,0,3,0
14:46:38.915875,5,-4,-1,0,-1,0,-5,1
14:46:38.930863,1,0,2,-1,2,-2,-2,0
14:46:38.930863,-7,-5,1,0,-5,-3,0,-3
14:46:38.952852,-1,-1,-3,-1,-1,-2,-1,1
14:46:38.953852,4,-1,2,-1,4,3,1,6
14:46:38.976835,-4,1,2,0,4,2,0,-2
14:46:38.976835,-3,-1,-1,2,0,-4,1,-1
14:46:38.990827,-4,-3,-1,-1,-4,0,2,0
14:46:38.990827,-2,-4,-1,-7,-3,-1,1,-2
14:46:39.012818,0,0,1,0,-5,-1,-1,-3
14:46:39.013813,9,-3,3,-2,-1,1,-2,2
14:46:39.035800,-3,-2,-6,-1,1,1,-2,0
14:46:39.035800,-3,-1,-1,0,-1,-1,-2,1
14:46:39.050792,-1,-2,-4,0,0,-3,0,1
14:46:39.059786,-3,0,-2,0,-3,-4,-4,0
14:46:39.072777,0,0,-2,-4,-4,0,-2,-1
14:46:39.073776,-2,-2,-5,-1,-3,-4,0,-3
14:46:39.095765,2,1,3,-2,-1,3,-1,2
14:46:39.096761,-1,2,-1,-1,-3,-1,0,-1
14:46:39.110755,1,2,3,1,7,8,3,3
14:46:39.111754,4,1,-1,0,6,-4,-2,-1
14:46:39.133738,-2,-2,-3,1,-4,1,-3,-3
14:46:39.133738,2,2,1,0,0,-3,0,4
14:46:39.155727,-1,-2,0,-3,-3,-1,1,-1
14:46:39.156726,-5,-4,-2,-2,-1,-3,-4,-3
14:46:39.170717,0,0,0,0,0,-2,0,-5
14:46:39.178710,0,-1,-1,-4,0,-1,0,-2
14:46:39.193702,-1,-2,1,1,-2,0,-2,-1
14:46:39.194703,0,-1,-1,-2,-1,-4,-2,-2
14:46:39.215689,18,-22,-7,0,-2,-1,-4,7
14:46:39.216689,0,5,-2,0,-3,-5,-1,-1
14:46:39.230680,-1,0,-1,-2,-1,0,-3,1
14:46:39.237682,-1,-4,0,-1,2,-2,-3,-5
14:46:39.253666,-1,1,-3,1,-1,1,2,0
14:46:39.260660,-1,-1,1,4,2,0,-1,2
14:46:39.276650,-2,-2,-1,-3,-3,1,1,1
14:46:39.277652,-3,4,-1,4,4,-3,-5,-6
14:46:39.290641,4,1,-2,-2,2,0,-2,3
14:46:39.305631,-3,0,-1,-3,0,1,0,-2
14:46:39.313628,0,-2,1,0,-1,-2,-1,1
14:46:39.313628,-1,-4,-3,0,-1,-3,-3,-1
14:46:39.335616,2,2,0,-4,-1,1,0,1
14:46:39.336615,-4,-2,-4,2,2,1,-1,-3
14:46:39.350606,-4,0,-1,-4,-1,0,-2,-2
14:46:39.358600,-1,-1,-1,-1,-5,-1,-1,-3
14:46:39.373595,-2,0,-2,0,1,1,-1,-1
14:46:39.373595,1,-1,-2,-4,-3,-1,-1,0
14:46:39.395578,-1,0,2,1,0,-5,-2,-1
14:46:39.396575,1,3,0,-2,-2,-4,-5,-3
14:46:39.410569,-2,3,-3,-3,-4,2,-1,0
14:46:39.418561,6,3,2,-1,4,1,2,3
14:46:39.433552,-3,-3,0,-2,0,3,0,1
14:46:39.433552,-1,-4,0,-2,-1,-2,1,-1
14:46:39.455541,-1,0,-2,-1,-1,1,-3,-2
14:46:39.456540,-6,-3,-2,-3,-1,-2,-4,-4
14:46:39.470532,1,-3,2,-2,0,1,-1,-3
14:46:39.478527,-2,-3,-3,-4,-5,0,-1,0
14:46:39.493515,2,3,-2,3,8,6,2,1
14:46:39.494516,-5,-1,-1,-2,0,1,0,-4
14:46:39.515504,1,0,0,-4,0,2,-1,-4
14:46:39.516503,0,5,3,2,1,3,1,2
14:46:39.530493,2,-4,0,-2,0,-2,-2,1
14:46:39.538486,0,-3,-1,-3,-1,-1,-1,0
14:46:39.553481,0,-1,-4,1,-4,0,6,5
14:46:39.554477,-1,0,1,0,2,-1,1,-2
14:46:39.576465,-1,-1,3,0,0,-2,-3,1
14:46:39.577463,-1,-1,-2,-1,1,0,-2,0
14:46:39.590461,0,0,-1,-2,-5,-2,0,-2
14:46:39.598452,-1,0,-1,-2,-1,0,0,1
14:46:39.613442,-3,0,2,0,0,2,4,2
14:46:39.614442,-5,-6,-1,-4,-3,-2,-2,0
14:46:39.635429,-2,0,-1,2,0,-3,-2,3
14:46:39.636428,-2,-1,2,-2,-1,0,0,1
14:46:39.659412,-3,0,1,0,-4,0,2,1
14:46:39.660415,-2,2,-1,-1,2,4,2,1
14:46:39.673406,-1,-3,-4,-1,-2,-2,3,1
14:46:39.674405,0,-1,-1,0,1,-3,2,-1
14:46:39.696392,0,0,-3,-1,-6,-5,-1,0
14:46:39.696392,-1,1,0,-1,0,2,1,-3
14:46:39.711379,5,0,-1,-4,-4,-3,0,1
14:46:39.719378,-1,2,1,0,-2,1,0,-1
14:46:39.733369,-1,-1,-2,-5,2,0,-1,0
14:46:39.734369,0,1,-3,-3,-1,0,-1,0
14:46:39.755354,1,-3,-2,-1,6,4,2,-1
14:46:39.756352,-1,-3,-1,-2,-3,-7,-6,-3
14:46:39.771343,-2,1,1,2,1,1,1,-1
14:46:39.778338,-1,-1,-2,1,-1,1,-2,-1
14:46:39.794329,-3,1,4,2,-1,-2,-2,-1
14:46:39.794329,-2,-3,-2,-2,-1,0,-5,-1
14:46:39.815317,-1,-1,-2,0,1,0,1,-5
14:46:39.816314,1,1,1,0,0,-4,-3,0
14:46:39.838303,-3,-3,-4,0,-4,0,1,-4
14:46:39.838303,1,-1,-3,-1,-2,-4,-3,-2
14:46:39.853295,-3,-3,-2,-1,0,-3,0,-1
14:46:39.854294,0,-1,1,-2,-1,2,3,-1
14:46:39.877277,-1,-2,0,-1,-2,-1,-3,0
14:46:39.877277,3,-3,-3,-4,-2,-2,-2,0
14:46:39.898266,-1,-2,-2,1,-2,-1,-1,1
14:46:39.899267,-2,1,1,-1,1,-5,-3,-4
14:46:39.913257,-1,-2,-3,-5,-4,1,0,-1
14:46:39.914256,-7,2,0,-1,-4,-2,-1,0
14:46:39.936240,-8,-1,-5,-3,0,-1,-2,-3
14:46:39.936240,-1,-1,2,1,1,1,0,-2
14:46:39.959228,-6,-3,0,-2,0,0,2,0
14:46:39.960226,0,0,3,-1,0,0,0,1
14:46:39.973217,0,-1,-1,2,5,2,1,0
14:46:39.974216,-2,3,1,-1,0,-2,-2,0
14:46:39.996203,-2,-2,0,-1,0,-1,0,-3
14:46:39.997205,-1,-2,-3,0,0,-2,2,-1
14:46:40.018189,3,-3,0,-3,-3,-3,-2,-1
14:46:40.019192,-2,-1,-4,-3,-2,-1,1,-3
14:46:40.033182,-2,1,0,-3,-4,-3,-4,-5
14:46:40.034182,2,0,-3,-2,-3,-1,-1,4
14:46:40.057168,0,1,0,-1,-4,1,-2,-4
14:46:40.057168,1,1,0,2,1,3,1,0
14:46:40.078155,0,2,-2,-1,-3,-2,1,-2
14:46:40.079152,0,2,0,4,-2,-1,-1,-5
14:46:40.094143,0,1,-2,1,-1,0,0,1
14:46:40.094143,-2,1,-2,0,-1,-2,0,0
14:46:40.116128,2,4,-2,4,3,-5,0,3
14:46:40.116128,0,0,-1,-3,2,4,-2,-3
14:46:40.138117,-2,4,0,1,-4,-1,-2,0
14:46:40.139117,-4,2,0,-1,-1,-2,1,1
14:46:40.153108,3,0,3,-2,-4,-5,0,2
14:46:40.161103,-4,-1,0,-1,2,-2,-3,-4
14:46:40.177091,-3,-2,1,0,-2,0,-1,-1
14:46:40.177091,-1,-2,-2,-3,-2,0,-6,1
14:46:40.198078,-3,-1,0,-3,-4,-2,-4,0
14:46:40.199077,-1,-3,0,-3,-3,0,-4,-1
14:46:40.213071,2,3,0,2,0,-1,-3,2
14:46:40.221065,1,-1,-3,0,1,-4,0,-4
14:46:40.236054,-2,-1,-4,-1,5,4,0,-2
14:46:40.237057,-1,-3,-1,0,-2,3,0,-2
14:46:40.260040,-1,-4,-3,-1,-3,0,-1,2
14:46:40.260040,0,3,0,0,-2,-3,-1,-2
14:46:40.273034,-2,-1,-1,1,-6,-4,-2,-3
14:46:40.281027,0,0,-2,0,0,-6,-3,-4
14:46:40.296020,0,-3,-3,-3,-3,-3,-1,-1
14:46:40.296020,-1,0,-2,-2,-3,-1,-2,-2
14:46:40.318006,-1,0,-2,0,2,0,2,0
14:46:40.327001,-3,-3,-2,2,3,0,-2,-3
14:46:40.332996,0,0,0,-4,-3,-2,-1,-2
14:46:40.340993,-1,-1,-1,1,0,0,1,-2
14:46:40.355979,6,0,-1,-4,-4,-1,1,3
14:46:40.355979,-2,2,-4,1,0,0,-3,1
14:46:40.377966,-2,-2,-3,-2,-1,-3,-2,2
14:46:40.378968,-2,-1,1,2,0,3,1,0
14:46:40.393957,0,-3,-2,-2,0,3,-1,-2
14:46:40.399953,0,-3,-1,1,0,1,0,0
14:46:40.415943,0,-1,2,-2,0,-2,-5,-3
14:46:40.416941,-5,-2,1,-1,0,-1,0,-1
14:46:40.437928,7,2,2,0,2,3,-3,5
14:46:40.437928,1,1,-1,-1,-4,-5,-3,-1
14:46:40.460914,-1,-2,-2,-2,0,1,-2,-1
14:46:40.460914,-2,1,-3,-1,-5,-2,1,-2
14:46:40.475928,7,-1,2,0,-1,-4,0,3
14:46:40.475928,0,-1,-1,-2,-3,-1,-1,-2
14:46:40.497892,-3,2,-3,1,1,-3,3,-5
14:46:40.498892,-1,-1,0,1,0,-3,-1,-2
14:46:40.519880,0,0,1,-4,-3,-6,-3,0
14:46:40.520878,-3,-5,0,-3,-2,-2,-5,-3
14:46:40.534875,-4,0,-1,-4,-2,-2,-2,-3
14:46:40.535869,-1,-1,-1,0,0,0,0,0
14:46:40.558854,-3,-1,-2,2,2,3,-1,-1
14:46:40.558854,-4,-2,-3,-1,-3,-3,-1,-3
14:46:40.580845,-5,1,-2,-4,-2,-3,-2,-2
14:46:40.581842,-2,-2,0,1,1,-2,-1,2
14:46:40.595834,0,0,0,-4,0,1,-1,2
14:46:40.596832,-2,0,-1,0,-4,-1,2,1
14:46:40.618818,-4,-3,-2,1,1,-2,-4,-4
14:46:40.618818,2,-1,-3,0,-3,0,0,1
14:46:40.647801,6,0,-1,-3,-4,-3,-2,-3
14:46:40.648798,-1,-1,0,-1,-2,-1,-2,1
14:46:40.655793,-2,-2,0,-2,-2,-1,-1,-1
14:46:40.655793,0,-4,-2,-1,0,-1,0,-1
14:46:40.678780,0,1,-1,1,1,-1,0,0
14:46:40.678780,2,-1,0,-3,-4,-6,-9,-3
14:46:40.700766,-2,0,0,1,-1,1,0,0
14:46:40.701769,-2,-2,0,-4,-4,1,-4,-2
14:46:40.715759,-3,1,1,1,1,-3,-1,-2
14:46:40.716758,3,2,-3,1,-1,3,-1,2
14:46:40.737746,0,-1,-2,-2,-5,-3,0,0
14:46:40.738746,-4,-2,-3,-2,-4,-2,-3,-3
14:46:40.760728,2,-4,-1,0,-1,-3,-2,-4
14:46:40.761731,-2,-1,0,0,-1,0,1,-1
14:46:40.776720,-3,-1,-3,-1,3,1,-1,0
14:46:40.777718,-2,-2,0,-1,2,-4,0,-1
14:46:40.798707,1,-3,-1,-1,1,0,3,0
14:46:40.798707,0,-2,-1,-1,-7,-10,-3,-4
14:46:40.820694,-2,-4,-1,-3,1,2,-2,4
14:46:40.820694,0,-3,0,-1,0,-3,-4,1
14:46:40.835686,-1,-3,-1,-2,-4,-3,-1,-3
14:46:40.836685,-1,-2,-2,-2,0,1,-2,0
14:46:40.858669,4,0,0,2,5,1,1,0
14:46:40.860671,-3,1,-3,-1,-4,-3,-1,-1
14:46:40.880657,0,-2,-1,0,-1,-3,-3,-1
14:46:40.881656,7,-2,-2,-4,-1,-3,-2,-4
14:46:40.895648,-4,0,-3,-3,3,-1,-2,1
14:46:40.896646,-3,1,-1,0,0,-2,-1,-3
14:46:40.918630,2,0,-2,-2,3,4,1,2
14:46:40.918630,1,-1,-1,1,-2,-3,-1,0
14:46:40.940619,-2,1,-2,1,-2,1,-1,0
14:46:40.941617,1,-1,-2,0,2,1,-1,-2
14:46:40.955611,-2,-3,0,0,-4,1,1,0
14:46:40.956610,1,-3,-3,-3,-1,-3,-6,-1
14:46:40.978593,-3,0,-2,-1,-2,-3,-3,0
14:46:40.978593,-3,-1,-1,-4,-3,-5,-3,-2
14:46:41.000582,-2,-1,-2,3,0,-2,-1,-1
14:46:41.001580,-1,-2,-2,-1,-1,-1,-1,-1
14:46:41.015573,0,0,1,-3,2,0,0,-2
14:46:41.016573,-1,0,4,-1,-4,-1,-3,-1
14:46:41.038556,2,2,1,0,-2,0,0,4
14:46:41.038556,-6,-5,-1,-4,-4,-2,1,-1
14:46:41.060546,0,2,2,0,-3,-2,-2,-3
14:46:41.061544,1,-1,-2,-4,-3,1,-3,-2
14:46:41.076534,-1,1,2,-2,-8,0,0,-1
14:46:41.076534,2,0,3,0,0,-1,-3,-2
14:46:41.098522,-1,-1,0,-1,4,-1,-1,0
14:46:41.098522,-1,2,-1,0,-1,-2,0,0
14:46:41.120509,-6,-3,-4,1,-4,0,-1,-1
14:46:41.121507,-3,0,0,1,3,-3,2,0
14:46:41.135499,-1,-2,-5,-3,0,-1,-1,-1
14:46:41.136496,2,0,0,-2,-2,-1,-1,-1
14:46:41.159482,2,-1,-1,-2,3,0,0,-5
14:46:41.160482,-1,-3,-2,-3,-1,1,1,0
14:46:41.180469,-1,1,0,2,-2,-2,0,-1
14:46:41.181469,-3,0,0,-2,-2,0,-1,1
14:46:41.195459,1,1,1,3,-2,-2,-3,-2
14:46:41.196461,0,0,1,1,3,-2,1,-1
14:46:41.218448,0,1,-2,-1,1,-1,-1,-1
14:46:41.218448,-36,-12,-5,-1,1,0,0,-3
14:46:41.255425,4,3,-1,-3,1,0,-3,-1
14:46:41.256421,1,-1,2,-1,0,-2,-6,0
14:46:41.256421,0,-1,-5,1,0,-3,1,-1
14:46:41.257422,-1,-1,1,-1,1,-1,1,-1
14:46:41.278412,-3,-3,-5,-8,-9,-3,1,-4
14:46:41.279411,-3,0,3,0,2,-2,2,-2
14:46:41.300394,-2,-2,-2,-1,-3,-6,-2,0
14:46:41.301394,2,0,0,-2,-4,1,1,1
14:46:41.315387,4,0,-1,0,-3,-2,1,-2
14:46:41.316387,5,-2,-1,-2,-1,-2,2,3
14:46:41.338373,-5,2,2,-4,-3,-3,-3,1
14:46:41.338373,5,0,0,-4,-3,1,-3,2
14:46:41.361356,-4,0,-2,-1,0,-3,1,-2
14:46:41.361356,0,0,2,-1,0,1,1,-2
14:46:41.376347,-1,-1,-2,-4,-2,1,0,-3
14:46:41.377347,-2,0,1,-2,0,0,-1,1
14:46:41.398337,-1,-1,-1,-2,-2,-2,-6,-3
14:46:41.398337,-1,-2,0,-1,-2,-2,2,2
14:46:41.421321,5,-2,-2,1,0,0,0,-3
14:46:41.421321,-2,1,-1,1,0,-5,0,3
14:46:41.435313,9,2,0,-1,-3,-2,-1,0
14:46:41.436310,1,-2,-2,-1,0,-2,-4,-3
14:46:41.459298,-1,-2,-2,-2,0,-1,-2,-3
14:46:41.460295,0,-2,0,-4,-4,-1,-2,-4
14:46:41.480292,1,1,-1,-1,-1,0,-2,0
14:46:41.481283,1,2,1,1,4,4,0,3
14:46:41.496275,0,-2,-4,-3,0,0,-1,1
14:46:41.503271,-2,0,-1,-4,-5,-1,-3,-3
14:46:41.518262,-2,-3,-1,-4,-2,-1,1,0
14:46:41.519260,2,1,2,1,5,5,-2,0
14:46:41.540247,-3,0,-3,-2,0,0,2,1
14:46:41.542245,0,-4,0,0,-3,3,-3,-3
14:46:41.571226,-5,-1,-1,-4,2,0,-1,-3
14:46:41.571226,-4,0,1,-4,-1,-2,-1,-2
14:46:41.578225,5,-4,0,-3,-2,-1,-3,1
14:46:41.579225,0,-3,-3,1,-3,-2,-5,-1
14:46:41.601207,3,0,0,1,0,1,-1,0
14:46:41.601207,0,0,1,0,-3,-5,-2,1
14:46:41.623197,-1,0,-1,0,1,4,-2,-1
14:46:41.624197,-5,-3,-3,-4,-3,-4,-2,0
14:46:41.638187,-1,-1,0,-1,-2,0,-3,0
14:46:41.639187,2,-1,-3,0,-3,-3,-2,-2
14:46:41.661175,-3,0,1,-2,-2,2,-1,-2
14:46:41.668168,-2,-1,1,-1,-4,-3,-1,-3
14:46:41.683159,0,-1,-3,0,-1,3,2,1
14:46:41.684159,-3,-5,-3,-2,-2,-5,-1,4
14:46:41.698150,-2,2,1,0,4,1,0,0
14:46:41.699146,-2,1,-3,-1,-4,-1,1,-3
14:46:41.721133,-4,0,-2,-4,1,-1,4,1
14:46:41.721133,1,-1,0,-2,0,-3,-1,-2
14:46:41.744120,0,-1,-1,-2,-1,1,2,-1
14:46:41.744120,-1,1,0,1,-1,-6,-1,-1
14:46:41.759111,-5,-3,-2,-3,-3,-5,0,-1
14:46:41.760110,-3,1,3,2,-1,0,0,1
14:46:41.781098,-6,-1,-1,1,-2,0,2,-1
14:46:41.781098,6,-2,0,-1,2,1,-1,0
14:46:41.803085,0,-2,-1,-1,-5,-5,-2,0
14:46:41.804084,-1,-2,-2,0,-3,-1,-2,0
14:46:41.818075,-1,0,-1,2,0,-1,-2,0
14:46:41.819075,-1,-4,-4,2,-4,-4,1,-2
14:46:41.841059,-1,2,-1,-3,3,2,-1,-1
14:46:41.841059,4,1,1,1,6,-2,-1,2
