timestamp,emg1,emg2,emg3,emg4,emg5,emg6,emg7,emg8
16:46:01.939194,-1,-2,-1,-2,-2,-3,1,0
16:46:01.939194,0,-2,0,-1,3,1,-1,-1
16:46:01.957184,-1,2,-1,-3,-5,-1,0,-3
16:46:01.957184,-2,-1,1,0,-3,-4,-2,0
16:46:01.972174,0,1,2,2,2,-1,-3,-3
16:46:01.972174,-2,-2,-3,-5,-2,-2,0,0
16:46:01.995163,1,-1,-3,-1,-3,-1,1,0
16:46:01.996160,-2,-2,-2,0,-5,-1,0,-3
16:46:02.016145,-1,-2,1,0,-2,-3,-2,-2
16:46:02.017151,-4,0,0,-3,-2,2,-2,-3
16:46:02.031136,-2,-2,0,-2,-1,-4,0,-1
16:46:02.039132,1,-1,-2,1,1,1,-2,2
16:46:02.053125,2,-1,0,-1,1,0,-2,-3
16:46:02.054122,0,1,0,0,0,2,1,1
16:46:02.076109,-1,-1,0,-2,-2,1,-3,1
16:46:02.077107,-1,2,0,-2,-1,1,0,-2
16:46:02.091099,0,-1,1,1,3,-1,-4,-3
16:46:02.099094,-2,0,-1,1,5,1,0,-3
16:46:02.114085,1,-1,-2,-1,-2,1,-3,-1
16:46:02.114085,-1,-1,-1,-2,-2,1,-2,-1
16:46:02.136071,-1,1,-1,-3,1,-1,-1,-1
16:46:02.137071,0,-3,-3,-1,-1,0,-2,1
16:46:02.151066,-3,1,0,0,-4,-4,1,-3
16:46:02.159056,0,0,0,-3,0,3,0,1
16:46:02.173063,-1,1,-2,1,1,0,-4,0
16:46:02.174049,-4,-2,-1,0,-4,-4,-1,-3
16:46:02.196035,-1,0,1,-1,-3,-2,0,-2
16:46:02.197033,0,-1,1,1,1,0,0,0
16:46:02.211025,-1,-4,0,0,-1,-1,-1,-3
16:46:02.219020,0,-3,0,-1,-2,-2,1,-1
16:46:02.233014,-2,-2,-4,0,-1,-1,0,-3
16:46:02.234012,0,-1,-3,1,1,0,0,-4
16:46:02.256000,1,-1,0,0,0,1,-1,1
16:46:02.256998,-4,-1,-1,-4,-6,-4,-2,-2
16:46:02.271988,-1,-1,0,1,-1,-2,-4,-1
16:46:02.278984,-2,0,-1,-1,0,-1,1,5
16:46:02.293974,1,0,-2,-1,-2,-3,-4,-1
16:46:02.294975,-2,0,1,-1,-4,0,-1,0
16:46:02.316962,-2,-1,-3,0,3,-2,0,-4
16:46:02.316962,-4,-1,1,-5,-3,-3,1,0
16:46:02.331952,-2,-3,0,0,-1,-1,0,0
16:46:02.338946,-2,0,0,0,1,-1,-2,1
16:46:02.353940,1,0,-2,-3,-1,0,-2,0
16:46:02.354938,-3,3,2,3,2,2,2,0
16:46:02.375924,-1,2,-2,-2,-1,-1,-3,1
16:46:02.376923,0,-2,-2,-4,-1,-2,-1,-1
16:46:02.391917,1,2,0,-1,-3,-1,-1,-4
16:46:02.398909,-1,-1,1,4,6,-1,-1,-2
16:46:02.413899,-1,0,-2,2,1,3,-3,-4
16:46:02.414899,1,-2,0,-2,-4,-2,2,-2
16:46:02.435887,-1,0,-3,-3,-2,0,0,4
16:46:02.436886,-2,0,-3,0,-4,2,-3,-1
16:46:02.451876,-2,0,-3,2,0,-2,0,1
16:46:02.458872,-2,0,-1,0,-2,-3,-2,-4
16:46:02.473862,2,-1,0,-1,-1,-2,-4,-1
16:46:02.474865,-2,-3,-2,-3,1,-2,1,-2
16:46:02.496848,1,0,-2,0,0,1,1,-2
16:46:02.496848,-3,0,-2,-4,-2,2,-2,-2
16:46:02.511839,-1,-2,-1,1,4,0,0,-2
16:46:02.518837,1,1,-2,-3,-3,-1,-1,-2
16:46:02.533828,-3,-3,-1,-1,0,-2,-2,-2
16:46:02.534825,-2,0,-1,-2,-1,-1,1,0
16:46:02.556812,-2,-2,-1,2,-3,1,-2,2
16:46:02.556812,-1,1,1,-2,0,0,1,-1
16:46:02.571801,0,-2,-1,1,-1,-1,-3,-1
16:46:02.578797,2,0,0,1,-4,0,1,-1
16:46:02.593790,-3,-3,-3,-4,2,3,-2,-1
16:46:02.594788,0,-2,-1,0,0,-3,-2,2
16:46:02.616774,-2,-3,0,0,0,-1,-2,0
16:46:02.616774,1,2,1,-2,-4,-2,1,1
16:46:02.631768,-2,0,-1,0,-4,-5,-1,-3
16:46:02.638762,-3,-2,-2,-1,-2,1,-1,-3
16:46:02.653754,-1,-3,-2,-3,-1,-2,0,0
16:46:02.654750,-3,0,-2,3,0,-1,-2,0
16:46:02.676737,-1,-1,-2,1,1,-1,0,-2
16:46:02.676737,0,1,1,-2,-1,1,-1,-1
16:46:02.698726,-3,-2,-1,1,-3,-2,-2,-5
16:46:02.699722,1,2,-2,0,-3,-1,-2,-3
16:46:02.713716,0,-1,-2,-3,0,-1,1,-2
16:46:02.714714,-1,1,-2,-2,2,-1,-1,-2
16:46:02.736699,1,2,-3,0,0,0,2,-3
16:46:02.736699,1,3,-5,1,1,-3,-2,0
16:46:02.758686,-2,-1,-2,0,-1,-3,-3,-2
16:46:02.759685,-3,-4,-4,-2,-6,-3,-1,-1
16:46:02.773676,-2,1,3,1,3,1,-1,0
16:46:02.774675,-1,1,-2,-3,-2,0,-4,0
16:46:02.795665,-3,0,-1,-1,-1,1,-2,-1
16:46:02.796671,-1,-1,1,2,-3,-2,-2,-6
16:46:02.818651,0,-1,0,1,-1,-2,0,-1
16:46:02.819651,-5,-1,-1,0,-2,-1,0,-1
16:46:02.833642,-3,-3,1,1,2,-1,2,0
16:46:02.834639,-2,0,3,1,-1,1,-3,1
16:46:02.856630,0,-4,1,0,3,2,2,-1
16:46:02.857625,-1,0,-1,0,-1,-2,-1,-1
16:46:02.879611,-2,2,-1,-1,-2,1,3,-1
16:46:02.879611,0,1,-1,0,-2,2,0,1
16:46:02.893604,-1,1,-4,-3,-5,-1,-2,1
16:46:02.894602,-3,4,0,1,-1,0,-2,-2
16:46:02.916592,0,-2,-2,-1,1,1,-1,-1
16:46:02.917590,-1,-2,-2,0,-2,-4,-3,-3
16:46:02.938576,2,0,-2,-1,-8,-3,-1,-2
16:46:02.939573,0,0,-1,4,3,1,-2,1
16:46:02.954566,-3,-4,-1,-4,-3,0,0,-1
16:46:02.961561,-1,-2,-7,-1,-7,-5,-1,0
16:46:02.976551,-1,-1,-2,-2,5,-2,-5,-3
16:46:02.977551,-3,-2,0,1,1,-2,-1,-1
16:46:02.999537,1,-2,-2,-3,-3,-1,1,0
16:46:02.999537,-2,1,2,-2,-1,-3,-2,-2
16:46:03.021526,0,0,-3,0,-1,-1,-1,0
16:46:03.022525,0,-2,-1,1,-1,-1,2,-1
16:46:03.036514,3,2,2,3,1,1,0,1
16:46:03.036514,0,-1,2,-2,-1,1,-2,3
16:46:03.058502,-1,0,-1,-1,-3,1,-2,-3
16:46:03.059499,2,3,-1,1,1,0,-1,-4
16:46:03.081488,-1,-2,0,0,0,-1,-2,-1
16:46:03.082485,-2,1,1,-3,-2,0,-2,-1
16:46:03.096479,-3,-2,-4,-3,-3,0,0,-1
16:46:03.097478,-1,0,-1,0,2,2,2,1
16:46:03.118465,-3,0,-1,-1,-3,-5,0,-1
16:46:03.119462,-1,2,0,2,4,3,0,-2
16:46:03.141451,1,-2,-3,-1,-4,-1,-1,-1
16:46:03.142450,-1,-4,-1,3,4,-1,-1,-3
16:46:03.156442,-1,0,-2,-3,-3,-2,-1,-3
16:46:03.157444,1,0,-2,0,-4,-2,-1,-1
16:46:03.179428,-1,-1,-2,-1,0,0,0,-4
16:46:03.179428,0,2,1,-1,1,0,-2,0
16:46:03.201414,-1,1,-3,-2,2,-3,0,0
16:46:03.202414,-1,-2,1,2,-1,-1,-1,0
16:46:03.216402,-1,0,-3,0,-5,-3,-1,0
16:46:03.217402,-3,-1,0,-2,-1,0,0,-2
16:46:03.239388,0,6,0,0,-2,0,0,-3
16:46:03.239388,0,-1,2,-1,1,0,-1,-4
16:46:03.254380,0,0,-4,-1,-2,3,-2,-1
16:46:03.261374,2,-1,0,0,1,-2,-1,-1
16:46:03.276367,1,-1,-1,-1,2,1,1,-1
16:46:03.277365,-1,-2,-2,-4,-4,0,2,-2
16:46:03.299354,-4,-2,-2,-1,-3,-3,1,2
16:46:03.299354,-2,-3,-1,1,-3,-1,-1,-3
16:46:03.314342,-1,-3,0,-1,-2,-1,-4,-3
16:46:03.321337,-1,0,0,0,-3,0,2,0
16:46:03.336327,1,0,-1,-1,-1,-2,-1,-3
16:46:03.337329,0,1,-1,-1,-2,-2,-4,-3
16:46:03.359313,0,-1,-1,2,-3,0,-3,3
16:46:03.359313,0,-2,1,-1,-2,-1,2,-4
16:46:03.374304,-3,0,-4,-3,-4,-1,0,1
16:46:03.381300,1,-1,-1,-1,1,-1,-1,0
16:46:03.396290,-1,1,-1,-1,2,-3,0,-1
16:46:03.397290,-3,-1,-3,0,-3,-1,-4,-2
16:46:03.419276,-3,-1,-4,-1,-2,0,1,-2
16:46:03.419276,-1,1,-2,-2,0,3,0,0
16:46:03.441262,2,-1,0,-1,0,-3,-2,-1
16:46:03.442262,1,0,-3,0,3,-2,-1,-3
16:46:03.456256,1,-1,0,-2,-1,-1,1,-1
16:46:03.457253,-4,-2,-1,0,-2,1,-2,1
16:46:03.479239,-2,-3,2,0,-1,-1,-1,-3
16:46:03.479239,-1,-3,-5,-1,0,-2,0,-1
16:46:03.501226,-1,-2,-2,0,3,2,-1,-1
16:46:03.502225,-1,-1,-1,-3,-6,-6,-2,0
16:46:03.524211,1,-2,-4,-3,-3,-3,-1,-4
16:46:03.524211,-1,-1,-3,-1,-4,-2,2,0
16:46:03.539202,-3,2,-3,0,-3,1,0,-3
16:46:03.539202,-2,0,-2,-2,-1,-2,0,-1
16:46:03.561189,-3,-2,-3,3,2,-2,-2,1
16:46:03.562188,1,-4,-1,0,-2,-1,0,-2
16:46:03.576179,-3,1,0,0,-1,1,-2,-1
16:46:03.577179,0,-1,1,1,-2,-2,-3,-1
16:46:03.599165,-1,-1,1,1,-3,1,-2,-3
16:46:03.600164,-5,-2,-2,-2,1,-3,-2,-1
16:46:03.621154,1,0,0,0,-3,-2,-2,2
16:46:03.622153,0,0,-1,-1,1,-1,1,-3
16:46:03.636145,-1,1,-1,-3,-1,-3,0,0
16:46:03.637141,-2,1,-2,-3,-2,-1,-2,0
16:46:03.659128,-1,-2,-2,0,0,-2,-1,1
16:46:03.660129,-4,2,-3,0,2,-1,0,-2
16:46:03.681113,0,-3,-1,2,0,1,1,-2
16:46:03.682113,-1,-3,1,-4,-3,-3,-2,0
16:46:03.696108,-3,-3,0,-1,-2,-3,-2,-4
16:46:03.697104,-1,0,1,2,2,2,-1,-3
16:46:03.719090,-2,-1,-1,-1,-2,1,-1,-2
16:46:03.719090,1,0,-2,-3,0,0,0,-3
16:46:03.741077,-2,-1,2,-3,-3,0,-1,3
16:46:03.742077,2,-4,-1,-2,-2,0,-1,1
16:46:03.756068,1,1,0,-1,-2,0,2,1
16:46:03.757067,-4,0,-1,-3,0,-1,-2,3
16:46:03.779057,-1,-1,-1,0,-1,1,0,-3
16:46:03.780055,-3,-1,-1,-2,-6,-4,-1,0
16:46:03.802038,0,0,-4,-1,-3,-1,1,-1
16:46:03.802038,-4,0,-3,1,-1,-2,-1,-1
16:46:03.816030,-3,-2,-1,1,-2,0,3,1
16:46:03.817029,0,-3,0,0,-6,-4,1,-2
16:46:03.839018,-2,-2,0,-1,0,-3,-1,-2
16:46:03.840015,-1,-2,0,-1,1,0,-1,-1
16:46:03.861002,1,0,-2,-1,2,-1,0,0
16:46:03.862001,-1,-3,0,0,-3,-3,-1,0
16:46:03.875995,-1,1,0,3,-2,-2,-1,-1
16:46:03.876992,0,-1,0,0,-1,2,-1,0
16:46:03.898979,-3,-1,-1,1,-2,-4,-2,0
16:46:03.899978,-2,0,0,-1,-1,1,-2,-3
16:46:03.921969,2,-3,-2,-3,-9,-6,-1,-2
16:46:03.921969,1,0,3,-2,4,-1,-2,-2
16:46:03.943953,-1,-1,1,-1,-1,1,-2,-2
16:46:03.944950,1,-3,-1,-5,-4,-2,1,0
16:46:03.958941,1,1,1,0,-1,-1,-1,1
16:46:03.959942,-1,-3,0,-4,-4,-1,1,0
16:46:03.981928,-1,0,3,0,-1,-1,0,-2
16:46:03.981928,-1,-5,1,0,1,0,-2,-1
16:46:03.995920,-1,-3,-2,0,-3,0,-1,0
16:46:03.996918,-3,-2,-3,1,2,-1,-2,1
16:46:04.018904,1,-3,-1,-3,-8,-2,1,1
16:46:04.019906,-3,2,-2,-2,0,-3,-3,0
16:46:04.041892,1,-1,0,-8,-30,0,-1,0
16:46:04.041892,0,2,0,-3,-15,-5,0,-1
16:46:04.055883,-3,-3,1,5,8,-1,-3,-2
16:46:04.056882,0,-1,-3,1,5,0,-2,-4
16:46:04.078868,2,1,1,-11,-44,-1,-1,1
16:46:04.079869,-4,0,1,2,6,-1,1,-1
16:46:04.101852,2,-3,-1,0,1,1,-1,-2
16:46:04.101852,0,-2,0,-4,-14,-4,1,-2
16:46:04.116844,1,-1,-1,13,14,0,-5,-1
16:46:04.116844,-2,0,7,7,-1,1,-2,0
16:46:04.138830,1,-1,-3,-12,-35,2,0,0
16:46:04.139829,0,0,1,0,5,-3,-1,-1
16:46:04.161815,0,-1,2,-1,-7,-4,-1,-1
16:46:04.161815,-2,-1,-2,-10,-15,-2,-2,-3
16:46:04.176807,-1,0,0,1,12,0,-2,0
16:46:04.176807,-2,-1,-4,-2,-1,-1,-1,-3
16:46:04.198793,-3,1,-2,2,-4,-2,-1,-2
16:46:04.199792,-3,-2,0,-16,-11,-2,2,-2
16:46:04.221778,2,-1,0,8,-23,0,-2,3
16:46:04.221778,-3,-4,-4,0,10,0,-3,-3
16:46:04.236769,3,-1,-2,3,21,4,3,5
16:46:04.236769,0,-2,-4,0,2,0,0,-2
16:46:04.266751,-3,0,2,3,-4,3,0,0
16:46:04.266751,-1,-1,-2,1,7,2,0,0
16:46:04.281741,-1,-1,0,-2,0,-6,-3,0
16:46:04.282740,-1,-1,0,1,3,-1,-1,-2
16:46:04.296735,-4,-1,-1,14,10,2,-3,0
16:46:04.303730,1,-2,-1,12,53,-1,-3,-2
16:46:04.319718,-1,-2,-3,-9,-11,-1,0,-3
16:46:04.320720,0,-3,-2,11,7,0,-2,-1
16:46:04.341706,3,3,0,5,2,-3,-1,0
16:46:04.341706,-2,-3,-3,-9,0,1,-1,-3
16:46:04.363693,-1,-1,-1,9,24,1,0,-2
16:46:04.364690,-3,-1,0,-3,-2,1,-4,-3
16:46:04.378681,1,3,1,1,4,-3,-1,1
16:46:04.379681,1,2,4,-1,-3,0,-1,0
16:46:04.401666,-6,-4,-3,1,-6,-1,-1,0
16:46:04.401666,0,1,3,13,12,-3,0,-2
16:46:04.423656,-3,-3,-5,-3,-21,-3,-2,-5
16:46:04.424655,0,3,4,10,28,-4,-1,6
16:46:04.439645,3,0,-2,22,4,4,-2,-2
16:46:04.439645,-3,-3,-1,-3,6,1,-1,-2
16:46:04.461633,-1,1,-3,-7,-2,1,2,0
16:46:04.462633,-3,-4,0,16,24,-2,-1,0
16:46:04.483616,0,-1,-3,-7,-18,0,2,-1
16:46:04.484618,1,0,-4,-36,-46,-4,1,2
16:46:04.498608,1,-1,2,4,-3,2,2,4
16:46:04.499606,1,-3,-3,-6,-18,-4,-3,0
16:46:04.521594,-1,-1,0,-7,-15,-7,-1,-5
16:46:04.522595,-2,-3,-4,-4,5,-1,2,-1
16:46:04.543580,3,1,2,-1,-10,-5,-1,3
16:46:04.544578,2,-1,0,-20,-58,-1,1,-4
16:46:04.558570,-4,-4,-1,1,18,-4,-1,-1
16:46:04.559572,-1,0,-5,-18,-48,1,0,-1
16:46:04.581556,-3,1,4,1,-43,-18,-1,1
16:46:04.582558,-2,-9,-6,12,33,2,-3,-4
16:46:04.603542,1,2,5,-1,-16,-10,-1,5
16:46:04.604544,-1,1,-3,-11,-38,-7,-2,-1
16:46:04.618535,-6,-7,5,3,-86,-11,-6,-5
16:46:04.619535,2,2,-3,33,41,-6,1,1
16:46:04.648519,-3,-1,8,30,-37,-12,-2,-1
16:46:04.649514,3,7,7,-21,-125,25,5,7
16:46:04.663507,0,-4,0,57,127,19,-1,-2
16:46:04.664506,9,1,-9,-66,-128,-10,6,9
16:46:04.678497,6,12,-13,-107,-128,16,4,3
16:46:04.679498,-5,3,6,-57,101,29,-10,-8
16:46:04.701483,4,4,21,127,127,127,12,4
16:46:04.702481,-13,-17,24,-128,127,52,-12,-8
16:46:04.723469,23,36,91,-3,-119,127,31,23
16:46:04.724467,1,-26,-115,-128,127,28,-13,-2
16:46:04.739459,17,-5,32,39,127,127,25,23
16:46:04.739459,0,-29,-35,127,-44,-128,-17,1
16:46:04.761444,5,29,121,127,-128,-42,12,5
16:46:04.762447,-43,-48,-102,-76,-128,-128,-24,-34
16:46:04.784432,23,88,127,127,-128,69,15,10
16:46:04.784432,-25,-54,-43,127,127,88,-12,-20
16:46:04.799422,22,36,72,127,127,22,20,17
16:46:04.799422,-20,8,29,-75,-128,-50,-22,-20
16:46:04.821410,-32,-109,-128,-128,-128,24,-37,-33
16:46:04.822409,30,127,127,127,127,54,30,26
16:46:04.844393,-1,-34,-79,-128,-128,-94,-8,1
16:46:04.844393,-5,-21,-86,127,127,127,16,-4
16:46:04.858386,19,99,110,41,-128,-128,-12,9
16:46:04.859386,-20,-81,-88,-47,127,-4,-5,-14
16:46:04.881372,11,9,4,127,127,127,17,7
16:46:04.882368,17,72,56,-128,-128,-128,-22,6
16:46:04.904355,-49,-128,-89,-128,-128,-128,-36,-36
16:46:04.904355,26,17,9,-128,-128,-29,4,8
16:46:04.926344,7,21,33,57,127,127,4,-2
16:46:04.927347,-56,-79,-82,127,87,-51,-4,-16
16:46:04.941335,11,127,127,127,-128,-106,-5,1
16:46:04.942334,11,44,33,-128,-128,-128,1,14
16:46:04.964320,11,46,96,127,127,31,3,-1
16:46:04.964320,22,3,-10,-128,-23,-85,1,10
16:46:04.979310,22,33,38,-103,-128,-103,-1,10
16:46:04.979310,11,10,26,127,127,127,20,7
16:46:05.001297,35,127,127,-128,-128,-47,-4,7
16:46:05.002294,-20,-54,-40,-50,-55,-34,-3,-8
16:46:05.024282,22,49,34,-101,-80,-128,1,14
16:46:05.024282,-15,-25,-24,127,127,101,-1,-12
16:46:05.039272,18,19,2,-53,-128,-14,5,14
16:46:05.039272,-17,-31,-14,127,-101,-102,-14,-13
16:46:05.061260,-5,-1,-1,-36,-38,21,-3,-4
16:46:05.062260,-6,14,-14,-91,-128,-115,-19,-6
16:46:05.084243,0,-2,-9,-78,47,84,9,1
16:46:05.084243,2,21,23,127,127,12,4,3
16:46:05.099235,11,19,0,-128,-29,-128,-1,7
16:46:05.099235,-11,-26,-13,22,127,123,2,-5
16:46:05.121223,7,3,20,119,85,101,10,3
16:46:05.122223,8,9,0,-66,-104,-28,7,12
16:46:05.144207,13,34,31,-88,-128,-38,-3,5
16:46:05.144207,5,3,-8,-128,127,26,-1,4
16:46:05.159197,13,20,8,-89,127,-63,-5,1
16:46:05.166196,-14,-11,-4,-59,36,15,-12,-15
16:46:05.181184,-9,-56,-43,127,127,127,13,1
16:46:05.182183,17,17,42,127,127,104,27,18
16:46:05.204172,21,82,71,24,-27,11,3,8
16:46:05.204172,-2,0,3,34,75,126,13,-2
16:46:05.242146,8,31,20,-81,105,-64,-10,3
16:46:05.242146,9,41,22,-14,-128,-111,-20,-5
16:46:05.243148,-1,-1,4,-128,127,-14,-2,-4
16:46:05.243148,1,-4,22,127,127,127,22,2
16:46:05.264132,16,6,32,43,127,127,32,17
16:46:05.264132,15,40,34,127,-128,-128,-9,8
16:46:05.279123,-5,2,-10,-93,-128,-14,-4,-5
16:46:05.286120,19,34,40,68,127,-42,17,15
16:46:05.301109,3,12,7,-31,-112,-51,-6,1
16:46:05.302109,2,9,2,102,15,-31,2,1
16:46:05.324095,1,-3,-6,-88,7,-76,-4,0
16:46:05.324095,-24,-43,-43,-53,44,75,-9,-17
16:46:05.339089,-1,-5,-6,-70,-128,-37,-6,-1
16:46:05.347081,0,4,-4,-30,-63,-33,-3,0
16:46:05.361075,3,2,2,24,9,-2,1,4
16:46:05.362072,-2,-4,2,-2,7,4,1,-4
16:46:05.384058,-14,4,1,0,5,-4,-15,-26
16:46:05.384058,-66,34,16,12,21,28,68,19
16:46:05.406044,-2,-33,-18,-14,-11,-15,-11,23
16:46:05.407043,127,43,15,9,7,-16,99,-44
16:46:05.421037,127,-63,-10,-7,19,79,12,127
16:46:05.422034,-36,68,-37,-33,-88,-110,-128,-128
16:46:05.444022,68,40,59,49,44,18,127,-10
16:46:05.445021,111,-65,-33,-29,8,63,-57,111
16:46:05.459014,-118,15,-14,-18,-37,-95,66,-43
16:46:05.467006,-106,23,25,19,30,22,-128,-68
16:46:05.481000,-50,64,1,0,5,43,127,127
16:46:05.481999,-9,9,18,9,4,-2,-128,-95
16:46:05.503986,-36,15,-38,-36,-30,-22,-43,-20
16:46:05.504985,127,41,19,16,10,11,127,-6
16:46:05.525972,-51,-13,-19,23,-26,-8,61,24
16:46:05.526972,-4,17,12,34,-27,9,15,1
16:46:05.541963,34,-7,6,-113,-128,-2,-9,3
16:46:05.548955,127,36,-8,127,127,-1,-73,-31
16:46:05.563946,127,69,33,-49,-128,26,75,69
16:46:05.564947,-118,70,-8,-11,-76,-39,-63,-40
16:46:05.585934,-127,18,-23,77,-15,-21,127,-42
16:46:05.586932,-13,55,83,-87,-59,-15,-18,-42
16:46:05.601922,-12,-54,-22,40,-128,-11,19,-50
16:46:05.608918,127,-103,9,95,105,47,5,40
16:46:05.623909,-62,-18,11,110,103,-21,27,-63
16:46:05.624910,-32,42,12,11,-128,-13,5,-42
16:46:05.646895,127,3,-16,38,86,18,127,32
16:46:05.646895,51,34,9,-9,-1,45,17,127
16:46:05.661885,19,19,19,62,127,49,88,68
16:46:05.668884,31,-5,6,16,127,3,15,-22
16:46:05.683875,-9,8,9,-25,18,24,40,10
16:46:05.684871,-11,-16,-6,-19,-95,-25,10,15
16:46:05.706859,62,13,-6,-1,-74,31,36,-10
16:46:05.706859,4,10,9,-56,-25,-7,-3,5
16:46:05.728845,41,15,16,13,-96,9,-38,22
16:46:05.729846,-9,-43,1,123,127,22,3,-9
16:46:05.743837,-2,15,8,4,-2,4,-12,-8
16:46:05.744835,-54,-5,3,17,-128,-62,-39,-26
16:46:05.766821,-43,-8,-3,0,-35,-10,11,-17
16:46:05.767822,-35,-6,-4,-19,11,12,12,-8
16:46:05.781814,-19,-4,13,28,-15,-7,-4,-6
16:46:05.788810,-2,-2,-12,-117,-128,-5,6,5
16:46:05.803800,-5,-2,1,18,104,-1,-12,-12
16:46:05.804797,7,16,-2,-3,8,-13,-10,8
16:46:05.826785,-28,-1,4,2,58,22,7,-6
16:46:05.826785,-37,-8,-22,-73,-10,-43,-24,-36
16:46:05.841774,-11,-1,-6,-13,-54,10,-5,-10
16:46:05.848770,-7,-8,-12,-22,0,5,-3,1
16:46:05.863760,-1,-1,2,4,-63,10,1,-1
16:46:05.864763,-12,-8,-3,3,56,37,3,-3
16:46:05.886746,-11,5,-3,-60,-44,0,3,0
16:46:05.886746,-25,6,-8,48,57,-3,-5,-9
16:46:05.901737,-21,5,11,2,-10,-6,-15,-7
16:46:05.908733,-19,-4,-1,15,-99,-10,-4,-13
16:46:05.923723,0,0,6,15,30,-3,-3,-5
16:46:05.924723,1,-3,-4,8,-119,-11,-3,0
16:46:05.946710,8,5,6,24,2,0,4,14
16:46:05.947708,-3,-2,4,-4,107,28,5,3
16:46:05.961700,-9,-8,2,15,-45,-22,-10,-9
16:46:05.968697,10,3,3,12,-4,7,2,-6
16:46:05.983688,-18,16,-4,9,83,-6,-7,-16
16:46:05.984686,-13,1,1,16,55,-18,-7,-12
16:46:06.006672,-6,6,-11,-6,66,11,1,-1
16:46:06.007672,8,-3,-3,-5,32,-2,6,1
16:46:06.021665,2,-4,2,31,10,-11,-8,-6
16:46:06.028660,1,1,-9,12,52,17,5,7
16:46:06.043649,-2,-1,2,14,26,2,3,0
16:46:06.044649,0,0,0,55,-3,8,9,17
16:46:06.066637,8,-1,-20,-55,-29,-2,-3,0
16:46:06.066637,-9,-6,5,-23,-56,-3,-1,-6
16:46:06.081626,13,7,3,42,127,19,4,5
16:46:06.088623,-7,-1,1,10,59,-1,-2,-3
16:46:06.103611,-10,-8,-6,13,20,2,-3,-7
16:46:06.104612,-1,0,1,-3,-72,-8,-4,1
16:46:06.126599,-4,-3,3,8,-8,0,-4,-5
16:46:06.127597,-4,-5,-4,14,20,2,0,-2
16:46:06.141591,0,2,-1,-36,-17,-10,0,1
16:46:06.149586,-11,-10,-1,41,108,-1,-5,-14
16:46:06.164576,8,2,11,56,-15,-2,0,2
16:46:06.164576,-3,-8,-8,18,26,1,-5,-7
16:46:06.186563,7,5,6,-2,-5,4,5,10
16:46:06.186563,2,2,1,12,-29,-3,-3,-4
16:46:06.201551,1,3,5,6,-3,-4,0,1
16:46:06.208549,1,0,-2,-30,29,2,0,-1
16:46:06.223539,1,1,0,-1,16,-6,-1,0
16:46:06.224539,-4,-7,-2,-15,5,0,-4,-6
16:46:06.246523,7,6,-2,-49,-86,-14,1,2
16:46:06.247522,-5,-4,-7,7,89,3,-2,-4
16:46:06.261514,-1,3,2,0,-15,-7,-1,1
16:46:06.268512,-9,-9,-6,-4,18,5,-1,-4
16:46:06.283503,0,5,0,-1,-7,-2,0,-2
16:46:06.284502,-6,1,-1,-6,-10,-3,0,-5
16:46:06.306486,-4,-3,10,32,28,4,-1,0
16:46:06.306486,-2,1,-9,16,24,-5,0,-1
16:46:06.321476,-7,-6,4,1,3,-4,-4,-2
16:46:06.329471,1,-1,-5,-29,-14,-1,0,0
16:46:06.344462,1,0,2,5,-16,-11,0,-2
16:46:06.344462,-4,-3,2,14,13,-9,-1,-2
16:46:06.366451,-1,-2,0,-5,-11,-3,-4,-4
16:46:06.367451,2,-4,-1,-1,3,-3,-1,1
16:46:06.381440,-1,1,-1,-16,-38,1,-1,-2
16:46:06.389438,-9,-5,-5,27,66,3,-7,-7
16:46:06.404425,2,-1,-2,-5,1,1,1,3
16:46:06.404425,1,2,-1,-4,-10,1,1,-1
16:46:06.426414,-3,1,-4,0,-2,-3,-5,-3
16:46:06.427414,-2,-1,-2,0,-2,-4,-6,-7
16:46:06.441402,1,-2,2,0,-4,1,-2,0
16:46:06.449397,3,0,-2,-4,9,7,0,0
16:46:06.471386,0,2,0,17,25,0,5,2
16:46:06.472386,-2,-3,-4,-9,1,0,0,-1
16:46:06.486374,3,2,2,4,-2,2,1,0
16:46:06.487376,-1,3,-3,-3,-48,-5,-1,-3
16:46:06.509362,-1,1,-1,0,20,7,-1,0
16:46:06.509362,-3,1,-3,-3,-6,-2,-1,-2
16:46:06.525352,0,-1,1,-3,2,1,-2,0
16:46:06.525352,5,-5,1,16,-5,-6,-1,0
16:46:06.546337,-2,-2,-1,-5,1,-3,-2,2
16:46:06.547339,-2,0,0,-13,-110,-25,-4,-3
16:46:06.569323,-4,-4,-6,5,38,6,-4,-7
16:46:06.569323,5,0,-1,-4,-2,5,6,4
16:46:06.584313,-5,-1,-1,-3,-6,-2,1,-1
16:46:06.584313,1,-3,2,12,-2,2,8,3
16:46:06.606300,-1,0,-2,1,1,-5,-1,1
16:46:06.607300,-3,-4,-2,-3,-2,1,-1,-3
16:46:06.629286,0,-1,-2,-15,2,-1,0,0
16:46:06.629286,2,-2,-1,-1,-1,-3,-2,1
16:46:06.644276,1,2,3,16,38,2,2,4
16:46:06.644276,0,-3,-2,-2,7,6,-2,3
16:46:06.666263,-2,-8,-1,1,10,6,0,-1
16:46:06.667263,-2,-3,-3,-4,8,1,-2,-1
16:46:06.689250,1,4,4,0,0,7,6,3
16:46:06.690251,-2,-3,0,0,3,-2,0,-2
16:46:06.704239,-1,-1,-2,0,-4,-2,2,1
16:46:06.704239,0,-1,0,1,-2,-3,-4,-2
16:46:06.726225,4,-3,-4,-3,-2,0,-2,-2
16:46:06.727225,6,1,4,9,4,3,2,1
16:46:06.749211,3,-2,-1,-6,-17,-1,3,-1
16:46:06.750213,-4,-1,0,-4,-10,-11,-5,-2
16:46:06.764204,0,-4,-5,2,36,9,1,0
16:46:06.771200,4,1,0,5,-56,-10,-1,0
16:46:06.786191,-1,-2,-1,1,15,2,-1,1
16:46:06.787188,0,-1,0,-6,-2,-1,-1,1
16:46:06.809174,2,1,-1,-3,-3,-3,1,-1
16:46:06.809174,0,0,0,0,-3,-4,-7,-1
16:46:06.824167,-4,-2,-2,2,9,-2,-1,-1
16:46:06.831162,-1,0,1,17,-26,0,0,1
16:46:06.846153,-6,0,-2,-4,22,-1,3,-3
16:46:06.847150,-1,-3,3,15,22,-4,-3,0
16:46:06.869139,-2,0,-3,-6,0,1,1,1
16:46:06.870139,2,-2,-3,-1,-4,-2,0,-1
16:46:06.891123,1,0,0,0,-4,-1,0,-1
16:46:06.892125,-4,0,0,-6,-4,-5,-3,-4
16:46:06.906114,-1,-2,-3,1,-9,-3,-2,0
16:46:06.907115,-3,-3,-2,-6,17,9,3,-1
16:46:06.929100,-3,-2,-4,-5,-6,-6,-3,0
16:46:06.930099,-1,-3,-2,-12,-95,-1,2,-2
16:46:06.944093,-4,2,0,13,61,15,-1,-3
16:46:06.952087,-3,-1,-3,-5,4,1,0,2
16:46:06.967077,-1,3,-2,-4,-5,-1,-2,-2
16:46:06.967077,-1,0,-3,0,-4,-2,1,1
16:46:06.997057,-2,2,0,-3,-3,-3,-2,-1
16:46:06.997057,1,1,2,1,2,3,1,0
16:46:07.004056,-2,-1,-2,0,2,-3,1,-3
16:46:07.012048,0,2,0,1,-1,-2,0,-1
16:46:07.026041,-2,-1,-1,0,0,1,0,-3
16:46:07.027042,0,-1,-1,-2,1,-4,-2,0
16:46:07.049025,-2,-1,-1,-2,-4,-1,-1,0
16:46:07.050025,0,2,-1,-15,-36,-7,-3,0
16:46:07.064019,-4,-2,1,18,17,3,-4,-2
16:46:07.072012,0,0,-1,3,14,4,-2,-2
16:46:07.087004,-4,-1,-4,6,0,1,2,0
16:46:07.087004,-3,0,3,-2,6,-2,-6,-4
16:46:07.108988,-1,-3,0,-2,-3,2,0,-1
16:46:07.109990,-2,-1,-2,2,-2,-2,2,-1
16:46:07.123979,0,-1,1,-3,-5,-2,1,2
16:46:07.131974,-3,0,0,-1,2,2,-2,1
16:46:07.145972,-1,1,-2,-2,-5,-9,-4,-1
16:46:07.146966,-3,-2,-1,2,8,4,0,-2
16:46:07.168951,1,-1,-3,-3,-8,3,1,2
16:46:07.169952,-6,-3,-2,13,22,-3,-4,-5
16:46:07.183941,-1,1,2,-5,-63,-8,-2,1
16:46:07.190944,-2,-1,1,0,0,0,-3,-4
16:46:07.205931,3,2,1,11,11,0,-2,1
16:46:07.206929,-1,-2,2,-5,5,-6,-5,-4
16:46:07.228914,0,-6,-1,0,6,6,-3,-3
16:46:07.229916,3,5,3,0,41,5,-1,3
16:46:07.243904,0,0,-4,-1,3,-2,0,-2
16:46:07.251899,0,0,-1,1,0,-2,-1,-1
16:46:07.266892,-2,-2,-1,-3,1,1,-5,-3
16:46:07.266892,2,0,1,1,-3,0,1,1
16:46:07.288876,-1,-4,-1,0,-1,-1,-1,1
16:46:07.289877,13,2,-3,-8,-10,-4,-4,0
16:46:07.303870,-1,-2,0,-2,-33,1,-2,-3
16:46:07.311863,-1,-2,-3,-1,3,-8,-3,-5
16:46:07.326853,-2,-2,0,-6,2,3,0,2
16:46:07.326853,-3,-1,-3,-1,-22,1,0,-2
16:46:07.348842,-1,1,0,4,-6,-7,-2,1
16:46:07.349842,0,-3,0,-5,0,-2,-3,0
16:46:07.363830,-3,-1,0,-1,-5,-2,-2,0
16:46:07.371827,-1,3,-4,-3,-41,-5,0,2
16:46:07.386816,-9,-7,-8,0,5,1,-5,-3
16:46:07.386816,-2,0,-2,2,-1,-2,2,0
16:46:07.408802,0,-3,1,-9,-17,-5,3,2
16:46:07.409803,-2,-5,1,8,12,1,-1,-6
16:46:07.431788,-7,1,2,6,-26,-10,-4,-5
16:46:07.432790,-2,0,1,-3,6,0,0,3
16:46:07.446779,0,3,0,-4,2,5,3,2
16:46:07.446779,-5,0,-2,0,-3,-2,-3,-1
16:46:07.468765,2,1,2,1,-1,-1,1,-1
16:46:07.469767,-5,0,-2,-5,-8,-8,1,-2
16:46:07.491750,-3,3,-3,0,3,2,-1,1
16:46:07.491750,-2,-3,0,0,0,-2,-4,0
16:46:07.506745,0,-3,-1,-1,-5,1,1,-1
16:46:07.513737,0,1,0,1,0,1,2,-1
16:46:07.528728,2,4,0,7,24,-1,1,0
16:46:07.529727,4,1,-1,-1,-6,-4,2,0
16:46:07.551714,-4,-5,-1,16,45,4,-4,-4
16:46:07.551714,3,0,1,-8,-15,-5,-3,-2
16:46:07.566704,-2,-1,2,3,0,3,2,-3
16:46:07.566704,2,2,-2,1,-1,1,3,3
16:46:07.588691,-2,0,-2,-3,-3,-3,-1,-2
16:46:07.589690,1,2,4,-1,-5,-4,-4,-1
16:46:07.611676,-1,1,-3,1,6,2,-2,1
16:46:07.612679,-5,-2,-1,-2,-1,1,-2,-3
16:46:07.626670,4,4,1,1,4,9,4,1
16:46:07.626670,-1,-1,-3,-30,-74,-6,-5,-2
16:46:07.648654,-5,-5,-3,0,4,3,-3,-2
16:46:07.649656,-5,-1,-1,1,14,-1,-5,-5
16:46:07.671642,6,-2,0,-4,-7,-1,1,3
16:46:07.671642,0,1,-2,-4,-9,2,-3,-3
16:46:07.686633,-3,2,-2,-2,-5,2,2,2
16:46:07.693626,-4,0,-3,1,-1,1,-3,-2
16:46:07.709615,-3,-6,-3,-3,-2,-3,-1,0
16:46:07.709615,-1,-3,-1,3,5,1,-2,-4
16:46:07.731605,1,0,2,-4,-6,-5,-3,1
16:46:07.732603,0,-5,0,6,15,0,-2,-3
16:46:07.746595,-5,-1,-1,4,-116,-6,0,-3
16:46:07.753591,-5,-3,-2,-1,19,-5,-7,-7
16:46:07.768581,0,0,0,-2,6,4,0,1
16:46:07.769579,-2,-3,-2,-1,-6,-3,0,-2
16:46:07.791568,12,1,-4,-2,-9,-3,-2,0
16:46:07.791568,2,-1,2,2,4,7,0,2
16:46:07.806558,-2,-2,-3,2,-4,-6,-2,0
16:46:07.814553,0,-4,-2,1,6,3,-3,-1
16:46:07.829543,-1,0,-3,0,1,0,-2,1
16:46:07.829543,-3,-5,-1,-2,-7,-2,2,-2
16:46:07.851530,0,-4,0,-4,5,-4,1,-1
16:46:07.852530,2,2,-1,2,10,-3,-2,1
16:46:07.866521,-8,-8,-5,1,-1,-2,-2,-3
16:46:07.874515,-3,3,1,16,11,2,1,0
16:46:07.888507,0,-2,1,0,18,1,1,2
16:46:07.889504,13,2,-2,-9,-4,-3,-2,1
16:46:07.911493,-2,1,0,-17,-31,1,0,3
16:46:07.912491,-4,-3,-1,4,7,-4,-1,-3
16:46:07.934478,0,1,-2,-2,3,2,-1,-1
16:46:07.934478,-5,-3,0,-1,-2,0,-3,-4
16:46:07.949467,0,-1,1,4,5,-6,2,4
16:46:07.949467,-7,-2,-4,-11,-8,1,-2,4
16:46:07.971458,0,-3,-1,1,9,-3,-1,-2
16:46:07.972455,-2,0,4,2,4,-1,-1,0
16:46:07.986444,-3,1,-2,-1,0,1,-5,-6
16:46:07.993442,4,2,0,6,-1,-1,-2,4
16:46:08.009430,-3,-4,-4,26,-23,1,0,-2
16:46:08.009430,0,-1,0,-4,6,2,2,-1
16:46:08.031416,0,1,0,-6,15,-2,-7,-4
16:46:08.032416,-2,2,0,5,-3,-16,-1,-3
16:46:08.046407,-1,-3,-2,-3,2,3,2,1
16:46:08.054402,-3,1,-2,0,-3,-3,-1,0
16:46:08.069393,0,0,-3,-3,-7,-2,-1,2
16:46:08.069393,0,2,0,-2,-4,4,0,1
16:46:08.091379,5,2,2,-1,1,2,1,1
16:46:08.092378,-4,-1,-3,0,6,-2,-4,-2
16:46:08.106369,8,1,4,1,1,-1,-3,-5
16:46:08.114366,6,3,0,2,0,-3,0,3
16:46:08.129355,-1,-1,-5,-3,-1,0,-1,2
16:46:08.129355,-2,-4,-2,-15,2,5,-3,-3
16:46:08.151342,1,3,2,19,-8,-7,0,3
16:46:08.152344,-1,-2,-3,4,8,1,-5,-6
16:46:08.166332,8,4,-3,-4,2,2,-1,-2
16:46:08.174328,3,-2,0,-4,-32,-6,-2,3
16:46:08.189320,1,0,-2,-4,0,1,-4,0
16:46:08.189320,2,-4,-3,-4,-7,-3,0,0
16:46:08.211305,1,-2,-3,2,3,0,-1,-2
16:46:08.212304,-4,-1,-3,-1,-4,1,-1,-2
16:46:08.226298,-4,-5,-4,-5,-15,-9,-2,-4
16:46:08.234293,1,2,-1,3,5,1,-3,-4
16:46:08.249281,-2,-2,-3,0,2,1,-1,2
16:46:08.249281,2,-2,-3,1,-1,-5,-1,2
16:46:08.271270,1,-1,0,4,5,0,-2,-3
16:46:08.272267,-1,0,-1,-2,-1,-2,-1,-2
16:46:08.286259,-3,-2,1,7,-3,1,-1,0
16:46:08.294255,-2,2,1,4,13,4,-1,-2
16:46:08.309244,-4,2,-1,-3,-6,-1,0,-2
16:46:08.309244,-1,0,2,-1,4,5,2,1
16:46:08.331230,-3,0,1,-1,-3,0,0,-3
16:46:08.332233,3,2,-3,-4,-1,-1,0,0
16:46:08.354216,1,0,-2,-2,2,0,0,-3
16:46:08.354216,-2,1,-1,0,-2,-1,-1,-5
16:46:08.369207,0,-1,-1,-2,1,4,-1,0
16:46:08.369207,0,-4,1,1,-1,1,1,-2
16:46:08.391196,-3,0,-3,-3,1,1,1,0
16:46:08.392193,3,-3,1,-5,-8,-2,1,3
16:46:08.414181,-2,1,1,8,15,2,0,-2
16:46:08.415178,0,0,2,-3,-1,0,-4,-3
16:46:08.429170,-2,0,0,-3,-6,-3,1,2
16:46:08.430169,-1,1,0,13,0,2,1,-1
16:46:08.451156,-2,-3,-3,-8,-6,-4,-1,-3
16:46:08.452156,-4,-2,-3,-4,1,-1,0,0
16:46:08.474142,-1,-3,0,-1,3,0,-3,-2
16:46:08.475144,-1,-4,-3,0,2,-2,2,-2
16:46:08.489132,-1,0,-4,-5,-6,-5,0,-2
16:46:08.489132,-1,-4,-3,2,7,1,4,-1
16:46:08.511119,0,0,2,1,3,3,0,0
16:46:08.512118,4,0,0,-6,-7,-7,-1,2
16:46:08.534105,-2,-2,-3,1,-14,-2,-3,-4
16:46:08.534105,0,1,-1,-3,-1,-4,0,3
16:46:08.549095,-4,0,-1,-1,-1,-2,-3,-4
16:46:08.550097,13,6,-1,-7,-6,1,2,2
16:46:08.571084,0,1,1,11,2,-3,-2,-1
16:46:08.572084,-2,0,0,-4,-3,0,-2,1
16:46:08.594068,1,-3,-3,-4,-5,-1,-1,-1
16:46:08.595069,2,2,-1,2,-3,-4,1,3
16:46:08.609058,1,0,0,-1,0,0,-1,-1
16:46:08.610061,3,1,2,14,33,-4,-1,0
16:46:08.632044,1,2,-1,-7,-24,-1,-2,-3
16:46:08.632044,-1,-1,-2,6,27,-2,1,-5
16:46:08.654033,6,1,1,-18,3,5,-1,17
16:46:08.655029,-2,-2,-1,-4,-23,-7,-1,-4
16:46:08.676019,0,-1,-4,0,6,6,-3,0
16:46:08.677016,2,-2,-2,2,0,6,1,-1
16:46:08.691010,-1,2,3,1,-4,-2,2,4
16:46:08.692007,0,-2,-2,8,10,-1,-2,-2
16:46:08.713993,-1,-2,-2,-3,-16,-1,1,1
16:46:08.714996,1,-1,-3,10,2,2,-1,0
16:46:08.729983,-2,-1,-5,-1,-5,-9,-2,-1
16:46:08.729983,-2,-1,1,-1,4,0,-1,-2
16:46:08.751970,0,-1,-2,-17,-5,-2,-1,0
16:46:08.751970,-2,0,-1,3,-3,-2,-2,-3
16:46:08.773956,-2,-3,-3,-3,-27,-1,-1,0
16:46:08.774958,1,-2,0,0,1,1,-4,-4
16:46:08.788946,-3,2,3,0,-3,0,-2,-1
16:46:08.796944,0,-1,-1,-3,-3,-1,-2,-2
16:46:08.811932,3,4,0,7,5,3,1,2
16:46:08.811932,-2,-3,3,-2,1,1,0,-1
16:46:08.833921,0,0,0,-2,1,-6,-2,0
16:46:08.834919,1,2,1,2,-1,-1,-2,3
16:46:08.848909,-3,1,0,1,3,7,0,-2
16:46:08.849909,-1,-2,-1,1,-2,-1,-1,-1
16:46:08.871895,-3,0,1,8,34,-3,2,-2
16:46:08.878891,-4,-1,0,5,5,-3,-1,-1
16:46:08.893881,0,-2,-2,-1,1,0,3,-1
16:46:08.894883,-1,0,-1,-2,-4,0,-3,0
16:46:08.908872,0,0,-2,-3,-6,-3,-1,-1
16:46:08.909872,0,0,-3,-1,-6,-4,-1,-1
16:46:08.931859,5,-1,-1,0,-2,1,-1,1
16:46:08.931859,-2,-3,1,-2,-7,-1,-1,-2
16:46:08.953847,-1,-2,-1,-7,-2,0,1,-1
16:46:08.954846,-1,-1,0,0,0,-1,-3,-1
16:46:08.968835,0,-1,-1,-5,-4,-3,-1,-5
16:46:08.969834,-3,-1,0,1,0,2,-2,-1
16:46:08.991822,1,4,-4,-8,-2,-4,-1,-1
16:46:08.991822,-1,1,-3,1,3,0,-2,-3
16:46:09.013807,1,-1,-1,0,3,-1,2,0
16:46:09.014809,0,-2,0,3,-10,-8,-1,1
16:46:09.028797,3,0,0,3,4,-2,-1,-1
16:46:09.036792,1,-2,-2,-2,0,0,-2,-2
16:46:09.051783,-1,2,2,4,-5,1,0,-2
16:46:09.051783,-4,-2,-1,-2,3,2,-1,-3
16:46:09.073770,-4,2,1,1,0,2,-1,1
16:46:09.074772,-1,0,0,0,-3,-4,1,3
16:46:09.096755,-1,-2,0,-2,3,2,-1,-2
16:46:09.096755,-2,0,-2,4,5,0,-3,-2
16:46:09.111746,-1,-1,-1,13,5,-2,-1,1
16:46:09.111746,4,-3,0,-3,2,-4,1,0
16:46:09.133733,-1,-1,-1,5,-4,-1,-1,-2
16:46:09.134731,-3,-2,3,0,1,-1,0,2
16:46:09.156721,0,3,1,0,5,1,0,1
16:46:09.157720,-1,0,-1,-5,1,1,0,1
16:46:09.171709,-1,-2,1,-3,0,-3,0,0
16:46:09.171709,-1,0,1,-2,-5,-4,-2,-4
16:46:09.193695,1,-1,1,0,0,-1,-1,-3
16:46:09.194696,-4,0,1,0,3,-1,0,0
16:46:09.216684,-1,0,-1,-12,-12,0,-1,2
16:46:09.216684,2,-2,1,1,9,-2,-3,1
16:46:09.231675,0,-1,-4,-2,1,-1,-1,0
16:46:09.232671,-1,1,1,1,-9,-2,1,0
16:46:09.253661,-2,0,3,4,0,-1,-1,2
16:46:09.254658,0,-3,-1,-3,-4,0,-3,1
16:46:09.276644,-2,-3,-4,-2,15,-3,-3,-3
16:46:09.276644,-8,-3,-3,0,5,-3,0,-1
16:46:09.291635,1,0,-2,0,3,0,1,-3
16:46:09.291635,-1,-1,-2,1,-1,-4,-1,-3
16:46:09.313622,-1,1,1,-3,-2,1,-1,-2
16:46:09.314623,1,-2,-1,-3,-2,2,2,0
16:46:09.336607,4,-1,-3,-1,-3,0,1,3
16:46:09.337606,0,-3,0,-3,-1,-1,-2,0
16:46:09.351601,0,1,0,-2,-5,-5,0,-1
16:46:09.352600,-1,-4,-1,-1,-3,-2,-3,1
16:46:09.373586,-2,-1,-2,-2,4,3,0,-2
16:46:09.374586,-3,-4,-1,-5,0,-2,-1,-3
16:46:09.396572,-1,0,1,7,5,3,1,-1
16:46:09.397569,-5,-3,-6,-4,-6,-2,-2,-2
16:46:09.411563,1,0,0,-13,-6,-3,1,-1
16:46:09.418558,-3,-2,-2,4,1,-2,-4,0
16:46:09.433549,-1,-3,0,-3,-3,0,-3,1
16:46:09.434546,1,1,2,0,0,-3,-1,0
16:46:09.456535,-2,-1,-4,-4,-6,-2,-2,2
16:46:09.456535,0,-1,-1,1,3,-3,0,3
16:46:09.471527,0,2,0,2,-1,0,-1,4
16:46:09.472526,0,0,0,18,19,-1,0,0
16:46:09.493512,-1,0,0,0,18,0,-2,1
16:46:09.494509,-1,-1,0,12,7,-1,-2,0
16:46:09.516498,5,1,-1,0,-1,0,-2,0
16:46:09.517497,3,1,1,0,-4,-3,-3,0
16:46:09.531489,-2,-4,-1,-2,-1,-2,-2,-3
16:46:09.532488,-2,-2,0,-2,-2,-1,-3,-1
16:46:09.554471,1,2,-1,2,-1,-1,-2,0
16:46:09.554471,1,3,0,-1,-10,-7,-1,-1
16:46:09.576461,-2,0,0,1,1,-3,-1,0
16:46:09.577459,-2,-4,-1,-1,3,-1,0,-4
16:46:09.591451,0,-1,0,-2,-8,-3,-1,2
16:46:09.592451,1,1,2,2,0,-5,-1,-2
16:46:09.614435,3,0,-2,-3,2,-1,1,-1
16:46:09.614435,1,0,0,1,-2,-4,2,1
16:46:09.636423,-1,1,-1,1,-1,-1,-1,-2
16:46:09.637420,11,2,0,-1,-3,0,0,0
16:46:09.651415,0,-2,-1,-1,-6,1,0,-2
16:46:09.652411,-2,-1,-2,0,1,-3,1,-2
16:46:09.674398,-3,-3,-3,-1,2,-1,-4,-5
16:46:09.674398,2,1,0,9,2,-4,-1,1
16:46:09.696384,-1,-4,1,20,13,1,-3,-1
16:46:09.697385,-2,-4,-3,-4,4,0,-2,-4
16:46:09.711377,2,2,-1,0,-1,-8,-1,-1
16:46:09.712374,-4,-3,-2,-4,-6,-3,-2,1
16:46:09.734363,3,1,1,3,2,-3,0,3
16:46:09.734363,-1,-2,-4,-2,-4,-4,2,-1
16:46:09.756346,-3,-1,-4,3,1,-1,-1,-3
16:46:09.757345,1,-4,-2,-8,-45,-1,-3,2
16:46:09.771340,-5,-1,-2,2,7,2,-1,-4
16:46:09.772340,-3,-3,1,2,2,-2,-1,0
16:46:09.794324,1,-2,0,2,1,1,-1,0
16:46:09.795325,-3,0,-1,2,-6,-5,-1,-2
16:46:09.824304,-5,-7,-5,-5,9,1,-4,1
16:46:09.824304,0,-3,0,-5,-5,-3,0,-3
16:46:09.831303,-2,0,-2,-4,-4,-5,0,-2
16:46:09.832299,3,0,-1,1,2,0,-1,0
16:46:09.854286,-1,-2,1,0,-6,-5,-3,1
16:46:09.854286,-2,2,-3,4,7,0,0,-1
16:46:09.876275,-3,-2,-2,-3,-2,2,2,-1
16:46:09.877272,0,1,-4,-4,-6,1,1,0
16:46:09.891265,4,0,-2,0,5,-2,-1,0
16:46:09.892265,-4,-1,-1,-11,-50,-2,-5,-5
16:46:09.914249,0,-2,-1,-1,5,0,-1,-2
16:46:09.915250,2,-2,1,5,4,-5,2,-1
16:46:09.936235,2,-3,0,0,0,-3,0,-3
16:46:09.937234,-2,-1,-1,3,1,-1,1,0
16:46:09.951226,-1,-1,-3,-15,-1,-2,-1,-5
16:46:09.952225,-4,-1,-2,7,1,-2,-1,1
16:46:09.974211,-3,0,-4,-4,3,1,-1,0
16:46:09.974211,12,4,-2,-3,4,-2,1,3
16:46:09.996198,-4,-3,0,-5,4,0,-5,-3
16:46:09.997199,-2,-1,-2,-2,-2,-2,-1,-2
16:46:10.011188,-2,1,-2,0,-5,-7,-5,-1
16:46:10.019184,-1,0,-1,0,0,0,-1,-2
16:46:10.034174,2,0,0,2,4,3,3,-1
16:46:10.034174,1,-2,1,-2,-1,-1,-1,-1
16:46:10.057160,0,-2,0,0,-3,-4,-2,-4
16:46:10.057160,-1,2,0,1,2,-2,0,2
16:46:10.079147,0,0,-1,3,2,2,0,0
16:46:10.079147,-5,-3,-4,-4,-2,0,-3,-2
16:46:10.094137,1,2,-3,20,24,-3,-5,-3
16:46:10.094137,1,-3,-1,-10,-8,-2,1,-1
16:46:10.116126,11,0,1,-2,-1,-4,3,-1
16:46:10.117125,-4,-2,1,-2,0,-1,-2,1
16:46:10.139112,-2,-3,-1,-4,-2,2,-4,0
16:46:10.139112,-1,-2,-1,1,-1,1,-1,-2
16:46:10.154100,-3,-4,-2,-2,-1,0,-1,-2
16:46:10.155103,6,4,0,4,6,3,2,2
16:46:10.176086,-1,0,-4,-1,5,0,-2,-2
16:46:10.177086,1,-1,0,-7,-6,-2,1,-2
16:46:10.200071,-1,0,2,1,7,0,1,0
16:46:10.200071,3,-1,-2,0,0,-2,0,-3
16:46:10.214065,0,-1,1,1,-3,0,0,1
16:46:10.215062,0,-2,-3,-1,-4,-2,0,-1
16:46:10.236049,2,1,-1,-2,1,1,1,-3
16:46:10.237048,-4,-2,-2,-15,-8,-3,-3,0
16:46:10.259035,-2,-3,-2,6,3,2,-2,-5
16:46:10.260035,1,-1,0,-5,-5,2,1,-2
16:46:10.274026,2,-1,-2,-3,2,-1,0,-1
16:46:10.275026,0,-1,0,-2,-4,-3,0,2
16:46:10.296014,-1,2,4,-1,-4,0,-2,0
16:46:10.297012,2,-2,1,-4,-4,-3,-3,-1
16:46:10.318998,-2,-1,-3,0,7,2,2,-2
16:46:10.319996,0,0,-1,-2,1,-3,2,0
16:46:10.333988,1,0,-2,1,-1,-3,-1,1
16:46:10.335000,-1,-2,-3,0,-1,-7,0,0
16:46:10.356975,-2,-2,-2,2,6,3,0,-1
16:46:10.356975,-6,0,1,-2,-3,1,1,2
16:46:10.378960,-1,1,-2,-2,-4,-3,1,1
16:46:10.379960,0,1,-2,-1,-4,-4,0,-2
16:46:10.393951,-1,-1,-5,-2,4,0,1,0
16:46:10.394951,-5,-5,-4,2,7,-2,1,-3
16:46:10.416937,-2,-2,-1,-2,-4,-1,-2,-1
16:46:10.416937,1,1,-1,-1,-2,-2,0,1
16:46:10.438926,2,-4,0,0,-5,-4,-2,-3
16:46:10.439923,3,4,-1,-1,7,2,-1,2
16:46:10.453914,-4,-3,-3,-3,-1,6,1,2
16:46:10.454913,-1,1,-1,7,0,-2,-2,1
16:46:10.476900,-4,0,-2,-5,-4,0,-1,-1
16:46:10.476900,-5,-3,-2,0,-3,0,-1,-2
16:46:10.498889,0,0,0,-4,0,0,0,-3
16:46:10.499886,-2,0,1,-1,-4,1,-1,0
16:46:10.513879,-3,0,-5,1,-1,-1,-1,2
16:46:10.514877,-4,1,-4,-5,-3,-2,-4,-2
16:46:10.536866,-2,0,-3,-3,0,0,-4,0
16:46:10.536866,0,-4,-3,-1,2,0,-1,-1
16:46:10.558852,1,0,-2,-1,-5,-3,-1,-1
16:46:10.559851,0,-5,0,2,1,2,-2,5
16:46:10.573840,-2,-2,-3,-2,-4,1,0,-5
16:46:10.581834,0,-3,0,-1,7,0,1,-2
16:46:10.596827,-1,-1,-1,-4,0,0,-1,-2
16:46:10.596827,-5,-2,-2,-2,2,1,-3,-3
16:46:10.618812,0,-1,1,-2,4,-1,0,-1
16:46:10.619811,-5,0,0,-3,-4,0,-1,-4
16:46:10.633805,-2,-2,-3,-2,-4,-4,-3,-2
16:46:10.641797,-2,-2,0,0,-1,1,-2,1
16:46:10.656790,-4,0,-1,-4,-2,-1,1,-2
16:46:10.656790,-4,-3,0,13,3,3,1,-2
16:46:10.678775,-3,-5,-2,0,1,-1,-2,-2
16:46:10.679780,-1,-3,-2,-7,-5,-3,-1,0
16:46:10.693766,0,-3,-1,-3,-5,2,-2,-1
16:46:10.701761,-2,-1,-1,3,4,-2,-2,-1
16:46:10.716751,-2,-1,-1,1,-2,-2,-1,-5
16:46:10.716751,0,0,-1,-1,1,-3,-1,-1
16:46:10.738737,1,-1,0,1,-1,-1,0,-1
16:46:10.739739,0,1,3,0,-7,-4,1,3
16:46:10.761724,-2,-1,-2,-1,0,1,-3,-4
16:46:10.762723,0,3,-1,-10,-8,-1,-1,1
16:46:10.776714,2,-3,2,6,2,-4,-1,-1
16:46:10.776714,-3,1,-3,-7,-10,0,-3,0
16:46:10.798700,-4,-3,-6,1,6,1,-1,-4
16:46:10.799700,0,-1,-1,-3,1,1,1,-2
16:46:10.813691,-2,-2,1,2,-4,-6,-2,-1
16:46:10.821686,-4,-5,-1,-4,-5,-3,-1,-4
16:46:10.836676,2,0,1,0,-2,-4,-2,0
16:46:10.836676,-8,-5,-4,-5,0,-3,-2,-3
16:46:10.858664,-2,0,-1,0,9,-1,-3,-4
16:46:10.859663,-4,-4,-2,-8,-6,-4,-1,-2
16:46:10.873655,-1,-4,-4,-2,0,2,-2,-3
16:46:10.881649,-1,-2,0,-6,1,2,-2,-3
16:46:10.896640,-1,-2,-2,-1,2,0,0,0
16:46:10.897642,-2,-2,-1,-1,-5,-1,0,1
16:46:10.918629,1,1,0,1,-1,0,-2,0
16:46:10.919626,-1,-1,-2,-3,-1,0,2,-1
16:46:10.933619,1,-1,-1,-1,0,1,-4,-4
16:46:10.941612,-3,-2,-2,1,1,2,-3,4
16:46:10.956605,-2,-1,-1,-5,-7,1,-1,-1
16:46:10.956605,15,2,0,2,3,-2,-1,2
16:46:10.979588,-4,-2,-1,-6,-8,-2,-3,-4
16:46:10.979588,-2,-1,-1,2,8,-2,0,0
16:46:10.993581,0,-4,-1,-3,-5,-4,-2,0
16:46:11.001575,2,-2,0,4,0,-1,-1,-3
16:46:11.016566,0,-1,-2,-3,-1,1,-1,-4
16:46:11.017565,2,3,1,0,-4,-1,-2,-1
16:46:11.039551,-2,-3,-2,-3,-7,0,-2,-5
16:46:11.039551,0,2,0,2,7,2,2,1
16:46:11.054543,-3,-1,-1,1,-2,3,-2,-1
16:46:11.061538,-1,0,0,2,2,-1,-3,-1
16:46:11.076531,-7,-4,0,36,26,-2,0,-3
16:46:11.077527,-3,1,-1,-13,-32,4,-4,-5
16:46:11.099516,-3,0,-3,10,-2,3,1,-2
16:46:11.099516,7,-2,0,-2,-6,-2,-2,2
16:46:11.114507,-4,-2,-2,-11,-18,8,1,-2
16:46:11.121500,2,0,1,0,-15,-14,1,3
16:46:11.136491,-4,-2,-2,0,7,5,-1,-3
16:46:11.137494,0,1,-2,-5,-10,-3,-2,0
16:46:11.159477,0,0,3,4,3,1,-1,0
16:46:11.159477,6,2,-1,-1,-2,-3,-2,2
16:46:11.174470,3,0,-1,-2,-2,-1,1,-1
16:46:11.181465,-6,2,0,-3,0,-7,-3,-2
16:46:11.196456,-2,-1,0,-1,0,0,-1,-4
16:46:11.197453,2,0,1,0,2,-1,-2,-1
16:46:11.219439,0,-1,-4,-16,-5,-2,0,-2
16:46:11.219439,0,1,0,5,-1,-6,-2,-1
16:46:11.241428,-2,-1,1,-1,-4,-2,-1,0
16:46:11.242425,-1,0,0,-4,-2,0,1,-1
16:46:11.256420,-1,0,-1,-2,-3,-1,1,-3
16:46:11.257415,-1,-1,1,-1,-1,0,0,1
16:46:11.279403,0,-1,-2,3,4,-3,-2,-1
16:46:11.279403,-2,-4,-3,-5,-1,0,-2,-2
16:46:11.301391,-3,3,-2,-3,-3,2,0,1
16:46:11.302391,2,-1,2,-12,-42,-2,-2,1
16:46:11.316382,1,-3,-6,-10,6,-1,2,-2
16:46:11.317379,0,3,1,4,3,-1,1,1
16:46:11.339364,-2,-2,-2,0,-8,2,-3,-1
16:46:11.339364,-3,-2,1,10,-6,-7,-1,-1
16:46:11.361354,-1,1,-1,3,-6,1,-2,-3
16:46:11.362351,-2,-2,2,15,28,-2,-3,-5
16:46:11.376345,-1,2,-2,-12,-20,-1,0,2
16:46:11.377342,0,-1,-1,3,5,-3,0,-4
16:46:11.399329,-1,-6,-2,-5,0,3,1,-1
16:46:11.400327,3,-1,-1,-4,-5,-2,2,0
16:46:11.421317,-1,-1,0,12,-1,-5,0,0
16:46:11.422316,0,2,-2,3,10,3,-1,0
16:46:11.436307,-1,0,1,0,2,-2,0,-1
16:46:11.437305,0,0,-1,0,-9,-2,-2,1
16:46:11.459290,0,0,2,0,19,-3,1,-1
16:46:11.459290,3,-1,3,-5,1,-1,-3,-2
16:46:11.481277,-3,2,-1,-3,-3,0,2,2
16:46:11.482276,9,3,-2,-1,-3,-4,1,0
16:46:11.496271,0,2,-1,13,27,-2,-1,-2
16:46:11.504262,1,0,0,-10,-9,5,0,1
16:46:11.519253,-3,1,3,13,7,-3,-2,0
16:46:11.519253,-2,-1,-3,2,-6,-4,-2,-2
16:46:11.541242,-2,-2,0,-1,2,2,-2,-3
16:46:11.542239,0,4,2,1,3,2,1,1
16:46:11.556231,-1,1,0,-4,-6,-3,0,0
16:46:11.564228,0,-3,0,0,-5,2,-4,-3
16:46:11.579217,-1,-2,-2,-5,2,1,0,-1
16:46:11.579217,0,0,-1,-1,-2,-1,0,3
16:46:11.601205,-4,-6,-3,-4,3,0,0,-2
16:46:11.602202,-3,-2,2,-2,-1,-2,0,-1
16:46:11.616193,-2,-1,0,4,9,1,-1,-1
16:46:11.624188,1,1,-1,-5,-4,-2,0,-1
16:46:11.639178,5,1,1,-1,1,0,0,1
16:46:11.639178,0,-2,0,-14,-1,0,0,-1
16:46:11.661165,-4,1,3,17,30,0,1,1
16:46:11.662167,0,-1,2,-8,-12,-1,-2,-1
16:46:11.676169,-1,-3,-1,-2,0,-3,-2,-4
16:46:11.684154,0,1,-1,1,-1,-1,0,-1
16:46:11.699141,2,2,3,1,-1,-3,1,-1
16:46:11.699141,-2,-1,-1,1,3,-2,-1,-1
16:46:11.721129,0,-1,0,-3,1,-2,-2,0
16:46:11.722128,-2,-5,-3,-4,-4,-2,0,2
16:46:11.737122,0,-2,-1,-1,-3,-1,0,1
16:46:11.744114,2,-1,0,-1,-3,0,1,-2
16:46:11.759104,1,0,-4,-7,-9,0,-1,0
16:46:11.759104,-1,1,-1,2,5,0,-3,-1
16:46:11.781091,-1,-3,0,-8,-4,-5,-2,0
16:46:11.782093,1,-3,0,21,4,3,0,3
16:46:11.796083,5,-1,-4,-7,-30,-7,-5,-1
16:46:11.812072,-1,-2,-3,-3,2,0,-4,-5
16:46:11.819067,-3,0,2,-10,-42,0,1,-1
16:46:11.819067,-1,-2,-5,2,7,-2,-2,0
16:46:11.841053,1,-1,1,2,-1,0,1,-4
16:46:11.842057,-1,0,-2,0,-3,-1,1,0
16:46:11.857047,1,-2,-1,1,0,0,0,0
16:46:11.864039,-1,-2,-1,-6,-4,-1,-1,0
16:46:11.879030,-5,-1,-3,-3,-7,1,1,0
16:46:11.880031,-7,-3,-2,-2,3,-1,-3,-3
16:46:11.901019,3,1,4,14,5,-4,-6,2
16:46:11.902019,-2,-5,-1,-17,15,3,0,0
16:46:11.917009,-3,2,-2,-6,-7,3,2,0
16:46:11.924005,-2,1,-2,-4,0,-3,-1,0
16:46:11.938996,0,0,-3,-2,-7,-4,2,-1
