timestamp,emg1,emg2,emg3,emg4,emg5,emg6,emg7,emg8
16:29:45.665298,0,-4,-3,2,5,2,1,-9
16:29:45.672290,-2,-2,-3,-5,-3,-5,-5,-6
16:29:45.680285,-6,-3,1,-7,-5,-5,-6,-5
16:29:45.695276,-1,-1,0,-4,-2,0,-4,-3
16:29:45.702274,0,0,0,-1,0,-5,-2,-2
16:29:45.717265,-3,-1,-3,5,7,3,-7,-4
16:29:45.718265,1,2,2,6,4,0,0,0
16:29:45.732255,-5,0,-1,1,1,3,-10,-1
16:29:45.739248,-4,-4,-1,-3,-3,-3,-1,-3
16:29:45.755241,-4,0,-3,-11,-16,-4,-4,-10
16:29:45.762237,-2,-4,-3,0,5,12,47,4
16:29:45.777228,1,-2,1,-1,1,3,-14,-7
16:29:45.778227,1,-3,-2,-3,-3,-4,0,-3
16:29:45.792219,3,-1,0,0,1,-2,2,0
16:29:45.800214,-3,-3,-5,1,4,6,9,6
16:29:45.815205,0,-1,-1,-3,-4,-13,-19,-2
16:29:45.822200,-6,-2,-4,11,9,4,9,-3
16:29:45.845186,-4,-1,-1,-3,-4,3,-7,-14
16:29:45.845186,-3,0,-2,1,3,-2,-5,-9
16:29:45.859175,0,2,2,3,-11,-12,-13,-7
16:29:45.860177,2,-3,-4,5,-3,1,0,-1
16:29:45.875168,-6,-2,-2,-2,5,4,3,3
16:29:45.882165,-1,-3,0,0,0,0,-1,-6
16:29:45.897154,-1,-1,-1,-1,-1,-1,0,-2
16:29:45.898150,-6,-2,0,8,6,-2,-9,-4
16:29:45.912144,-2,1,0,-12,-8,2,2,-4
16:29:45.920139,1,-1,-1,5,1,1,-1,1
16:29:45.935130,-1,-1,1,1,1,0,3,6
16:29:45.942126,-4,0,-1,1,1,0,-17,-6
16:29:45.965109,-3,-2,2,0,4,-1,1,1
16:29:45.965109,-7,-5,-4,-2,-4,-3,-6,-10
16:29:45.972108,2,0,1,-1,-4,-4,-5,12
16:29:45.980100,-2,0,-6,0,-2,-2,0,1
16:29:45.995092,1,-3,-1,-5,-5,0,6,-3
16:29:46.002089,12,0,2,-1,6,7,8,18
16:29:46.017080,3,1,3,-2,-1,-3,0,-3
16:29:46.025075,-4,-5,0,9,6,-4,-8,-5
16:29:46.032071,3,0,-4,-16,-18,-7,-1,5
16:29:46.040065,0,-2,1,4,6,23,22,13
16:29:46.055054,-2,-2,-1,1,-3,-7,-2,-9
16:29:46.062052,-6,-2,-2,-2,0,8,32,-12
16:29:46.077043,2,-1,0,-2,2,-3,-10,-8
16:29:46.078040,-14,-3,-1,0,-1,2,10,4
16:29:46.092034,-4,-3,3,-2,4,3,10,-5
16:29:46.100033,-5,0,0,0,1,0,-7,-1
16:29:46.115020,-4,-2,-4,-1,-2,0,-9,-3
16:29:46.122015,-4,-1,-1,-2,-1,-9,-6,-7
16:29:46.137003,5,0,-1,2,3,-5,-21,9
16:29:46.145004,-3,-2,-2,-1,1,0,2,-5
16:29:46.151997,0,1,0,1,-2,-3,4,-1
16:29:46.167988,2,-1,-1,1,-3,2,-9,1
16:29:46.174983,6,0,-2,-1,4,0,12,13
16:29:46.181978,-2,-4,-1,-1,-1,-1,-2,-7
16:29:46.204962,-11,-3,-1,-1,-1,-3,-13,-8
16:29:46.205962,-7,-2,-1,1,3,11,13,15
16:29:46.212958,-3,-3,-1,-4,-3,-8,-9,-8
16:29:46.219955,-4,-3,-2,-5,-3,-1,-1,-4
16:29:46.241941,-1,-1,-1,-1,-6,-2,-8,3
16:29:46.242940,-4,-1,-1,0,3,0,1,-2
16:29:46.256931,-3,0,0,-2,0,0,-8,-7
16:29:46.264926,-6,-1,-1,-2,2,-1,1,-1
16:29:46.279915,-3,-3,0,-2,3,3,0,0
16:29:46.280915,2,-3,2,1,-2,-16,-30,-1
16:29:46.301905,-7,-1,-1,-1,1,4,-3,-8
16:29:46.302901,-1,-3,-1,-2,0,-1,-2,2
16:29:46.317895,-4,-4,-2,-1,-2,-13,-8,-9
16:29:46.324891,4,-2,-4,-2,0,-4,-4,-1
16:29:46.339878,3,-1,2,3,1,-7,-10,1
16:29:46.339878,1,-1,1,-1,0,7,4,3
16:29:46.354872,-1,-3,-4,2,0,-3,1,1
16:29:46.369863,-4,-1,-3,0,2,1,0,-1
16:29:46.384854,-2,-1,-4,-2,2,-4,0,-3
16:29:46.385853,-2,-3,-1,-2,-6,-3,-3,-2
16:29:46.399845,-5,-5,-2,8,4,-12,-36,-4
16:29:46.400842,-5,-1,2,1,5,4,3,-3
16:29:46.421829,9,2,0,-1,1,5,3,1
16:29:46.422830,-4,-3,-1,-1,2,3,2,-1
16:29:46.444817,-5,-4,-1,1,-4,-8,1,-14
16:29:46.444817,2,-1,-1,-1,1,7,4,4
16:29:46.459808,1,0,2,1,-1,-2,-4,-5
16:29:46.459808,-5,-4,-5,-1,-1,0,-6,-11
16:29:46.474798,16,-1,-2,3,1,7,10,29
16:29:46.482794,1,-1,-1,0,-3,18,62,8
16:29:46.497783,-1,2,2,-2,2,-1,-14,-8
16:29:46.504780,-4,0,-2,0,-3,-7,4,-4
16:29:46.519771,4,3,0,-1,4,2,15,17
16:29:46.520769,-4,-2,-2,0,1,-5,-3,-3
16:29:46.534762,-5,-2,-1,-3,-9,-5,5,-9
16:29:46.541755,0,1,-3,-5,1,2,-17,-10
16:29:46.557747,-4,-3,2,3,0,-4,-7,-5
16:29:46.564741,-2,-1,-4,-3,-4,-8,-4,0
16:29:46.579731,-4,1,-3,-2,1,0,2,-2
16:29:46.580731,-2,-2,1,0,0,3,5,-5
16:29:46.594725,-3,-2,-1,-3,-4,-3,-4,-7
16:29:46.602717,-8,-1,-3,1,1,2,15,-4
16:29:46.617708,1,1,-3,-3,-2,-2,-4,-3
16:29:46.624703,0,-5,-4,-1,1,-1,0,-3
16:29:46.639697,3,-2,-5,-1,-4,-5,5,-7
16:29:46.640693,-1,1,0,0,-4,-4,-8,-1
16:29:46.654688,4,-1,-2,0,-1,-4,-3,3
16:29:46.662680,-3,-1,-3,0,-6,-1,0,2
16:29:46.677670,1,-2,-5,2,2,1,0,5
16:29:46.692664,-6,-3,1,0,-1,-4,-1,-4
16:29:46.699660,-3,-3,0,2,-2,6,1,2
16:29:46.700657,0,-3,0,1,2,1,2,-1
16:29:46.714648,-3,-2,-2,-1,-4,1,-10,-5
16:29:46.722642,-1,-2,0,-1,-2,-15,-37,-4
16:29:46.737636,1,0,0,0,-1,9,11,6
16:29:46.744632,0,0,-3,1,-1,-2,-1,-2
16:29:46.759623,-2,2,-4,-3,-2,-9,-12,-5
16:29:46.760623,-3,-2,0,-1,-4,-5,-2,4
16:29:46.774611,-4,-1,0,-2,0,-4,-3,-3
16:29:46.782606,-5,-2,0,-3,1,-3,-4,-6
16:29:46.804595,-3,-1,-2,-1,-3,-3,-2,-2
16:29:46.805593,-5,0,-3,0,1,-1,1,-3
16:29:46.819583,0,1,0,0,-2,-1,0,1
16:29:46.820582,-1,0,0,1,0,-3,-7,-4
16:29:46.834574,-1,-1,1,-4,-2,-6,-4,-1
16:29:46.842569,-1,-1,-1,-3,2,13,6,1
16:29:46.864558,-1,-2,0,-1,0,-2,0,-4
16:29:46.865557,-2,1,1,1,4,5,5,3
16:29:46.879546,-2,1,-3,-1,-2,-2,-1,-2
16:29:46.881549,-3,0,2,-2,-1,0,3,1
16:29:46.902532,-1,-1,0,3,2,1,-1,0
16:29:46.903533,-2,-4,-3,-3,-2,1,0,1
16:29:46.917526,-5,0,-1,-2,3,-1,-5,-5
16:29:46.924519,-3,-5,-3,-3,0,11,-9,-3
16:29:46.939512,2,2,2,2,1,0,4,2
16:29:46.947505,6,1,-1,-2,-1,6,12,-1
16:29:46.954503,-6,-4,-1,-2,-2,-8,-11,-11
16:29:46.962498,2,2,1,1,5,10,7,4
16:29:46.977489,-2,0,2,-1,-2,-2,-5,-3
16:29:46.984484,-4,-3,1,0,-1,-5,-3,-4
16:29:46.999475,-1,-2,-1,-3,1,-3,-2,0
16:29:47.007470,-3,-5,2,-2,-1,-1,-8,-4
16:29:47.014463,0,-3,2,-3,4,-1,-42,9
16:29:47.022462,-4,-5,-1,-1,-2,0,13,6
16:29:47.044448,-4,-7,-5,0,0,-4,-2,-14
16:29:47.045447,-5,-4,-5,0,3,4,4,-8
16:29:47.059437,3,1,-2,-3,-1,2,-2,2
16:29:47.067434,0,0,-1,-4,4,3,0,-1
16:29:47.074427,0,0,0,1,1,0,-1,-6
16:29:47.082424,-1,0,1,-1,1,1,0,-1
16:29:47.097415,4,1,-1,1,3,2,-1,1
16:29:47.104408,-3,2,-1,0,0,-2,0,1
16:29:47.119402,1,2,1,1,1,0,1,0
16:29:47.134392,0,0,-2,0,-2,1,-1,-3
16:29:47.135389,0,1,-1,0,-2,-3,-3,1
16:29:47.142387,1,-1,3,0,1,-1,-2,2
16:29:47.157378,0,-3,-1,-4,0,1,-2,-1
16:29:47.164371,1,-1,-2,0,4,-1,0,-2
16:29:47.187359,-4,-3,-5,-2,1,-2,-3,-2
16:29:47.188357,-3,-1,-1,-3,-3,-2,-5,-2
16:29:47.194352,1,-1,0,0,0,-1,5,2
16:29:47.202350,4,3,3,-3,-3,8,9,15
16:29:47.217338,-5,-2,-3,0,2,-2,3,-4
16:29:47.225337,-2,-3,2,-2,-4,-2,-12,2
16:29:47.239325,0,-4,-4,-3,5,1,7,4
16:29:47.247322,4,-1,-2,0,1,3,3,2
16:29:47.262313,-4,0,0,1,4,-1,1,-1
16:29:47.262313,-2,-2,-1,-2,0,1,0,-1
16:29:47.284299,0,0,-1,0,-2,-2,-4,0
16:29:47.285299,0,2,-1,0,3,2,1,4
16:29:47.307286,-3,-1,-1,-1,0,-4,-7,-7
16:29:47.308286,5,-1,0,3,2,11,17,16
16:29:47.322277,-9,-2,0,-2,-2,-4,-7,-9
16:29:47.323275,-5,-1,-1,-4,-12,-1,1,1
16:29:47.337267,0,1,-1,1,3,3,0,-4
16:29:47.344261,-1,-1,-1,1,-2,3,0,-1
16:29:47.359251,-1,1,-1,0,-4,-2,0,1
16:29:47.367249,-4,-2,-1,-1,0,-4,0,1
16:29:47.382240,-2,-1,1,1,2,-2,5,1
16:29:47.383237,-3,0,-3,-2,-2,-3,-14,-3
16:29:47.397229,-4,-1,0,-3,-1,1,-2,-5
16:29:47.405225,-2,1,0,2,0,0,-3,-1
16:29:47.420214,-7,-2,-3,-2,-4,-5,-2,-7
16:29:47.427212,-5,-1,0,1,5,-1,1,-2
16:29:47.442203,4,-3,-1,-2,-9,-4,2,2
16:29:47.443206,6,0,0,1,4,0,-1,-4
16:29:47.458193,-5,1,-1,-1,-4,-3,-4,-9
16:29:47.465185,-1,1,0,-3,0,0,0,5
16:29:47.480177,0,0,1,-2,0,0,-2,0
16:29:47.495168,-2,-2,-3,-1,2,-2,-2,1
16:29:47.502166,0,0,2,2,-1,-1,-1,1
16:29:47.503165,-3,-4,-3,-1,-2,-3,-1,-3
16:29:47.532147,-6,-2,-4,-2,-1,0,-1,-1
16:29:47.533147,-3,0,-1,1,-6,-3,-3,-2
16:29:47.540140,1,0,1,-3,2,2,2,1
16:29:47.547138,-3,0,-3,-3,-1,1,-2,0
16:29:47.562129,8,0,-2,-15,-14,-1,2,5
16:29:47.563126,1,-2,2,1,2,-1,1,-1
16:29:47.577117,-1,-3,0,0,2,0,2,-2
16:29:47.585112,6,-1,-2,-2,-4,1,3,4
16:29:47.600106,1,-2,-4,0,1,-1,-4,-4
16:29:47.607101,-1,-1,0,3,6,0,1,3
16:29:47.622092,-1,-3,-3,1,-1,0,-1,-1
16:29:47.623091,-1,2,-1,-1,2,2,2,-2
16:29:47.637079,1,-1,-4,-4,-2,1,-1,0
16:29:47.645078,-1,-1,-1,9,0,3,1,1
16:29:47.660065,2,0,10,4,-2,-2,0,0
16:29:47.667064,-5,-4,-9,-7,-9,-3,0,0
16:29:47.682055,-2,0,5,5,1,-3,-1,-4
16:29:47.683052,-1,-1,-1,-2,3,1,2,-1
16:29:47.697043,0,-1,-2,-9,-6,0,-1,-1
16:29:47.712035,-4,-4,-2,-2,-3,-1,2,1
16:29:47.720028,-1,-3,0,0,1,1,-1,-4
16:29:47.727027,2,0,3,-5,1,2,0,1
16:29:47.742018,-1,-1,-5,-3,4,1,2,2
16:29:47.743017,1,0,0,0,-2,-1,0,-2
16:29:47.757006,1,1,10,2,-8,0,-1,-1
16:29:47.765004,-3,-5,-32,-5,-3,-5,-1,-3
16:29:47.779994,-6,-4,4,18,4,-1,-2,-9
16:29:47.786990,2,2,0,2,6,0,1,1
16:29:47.801981,-2,-3,-4,11,4,0,-4,-3
16:29:47.802977,-4,1,16,-16,3,3,0,-2
16:29:47.817971,7,5,9,16,-18,1,4,2
16:29:47.824968,3,5,16,84,36,4,1,2
16:29:47.839958,3,10,54,44,-7,-5,2,1
16:29:47.846953,-5,2,21,-26,2,0,-1,-3
16:29:47.861947,4,-1,-3,74,6,7,3,3
16:29:47.862941,3,5,-31,-90,1,-2,-1,5
16:29:47.884927,-10,-17,-18,-128,-18,-16,-4,-3
16:29:47.884927,1,14,66,91,110,12,-2,-3
16:29:47.899921,7,-1,-30,5,-22,-22,-1,5
16:29:47.906915,-2,7,69,97,127,65,8,1
16:29:47.921906,10,20,80,-64,-128,-61,1,9
16:29:47.922907,13,2,-38,42,-128,-27,2,6
16:29:47.937895,-16,-12,-73,-44,127,33,-11,-16
16:29:47.944890,-15,3,82,127,-128,9,-3,-10
16:29:47.959884,8,6,127,127,-128,-91,-11,5
16:29:47.966877,-38,-64,-3,41,-128,-90,-21,-23
16:29:47.981869,24,110,127,127,127,127,22,11
16:29:47.982870,29,-54,-128,23,-128,-128,19,40
16:29:47.997858,-11,72,127,124,-69,108,5,-11
16:29:48.004856,26,49,-19,116,-128,-14,7,3
16:29:48.019847,-80,-105,-2,32,-1,-40,-49,-62
16:29:48.026839,48,115,100,127,-128,42,21,19
16:29:48.042832,-47,-120,-84,13,26,-28,-25,-25
16:29:48.049829,20,53,30,-36,-60,23,13,10
16:29:48.056824,-2,-37,-28,25,10,-8,-1,3
16:29:48.064820,2,15,7,-23,-28,0,3,0
16:29:48.079810,3,4,-11,-35,-20,-1,0,-4
16:29:48.086803,-24,-13,43,41,2,-2,5,-16
16:29:48.109789,42,38,5,-71,-8,9,17,39
16:29:48.109789,-32,-57,-58,-128,-128,-84,-16,-25
16:29:48.117783,-20,-29,-40,-65,-51,-16,-9,-11
16:29:48.124783,13,49,17,0,61,-4,-5,-2
16:29:48.139774,-33,-75,-67,-31,-38,-28,-10,-10
16:29:48.147768,-29,-23,-36,-77,-128,-128,-31,-25
16:29:48.162762,35,99,91,127,33,17,6,5
16:29:48.169755,-21,-21,-62,14,-128,-16,2,0
16:29:48.184745,-4,10,43,-128,23,34,0,1
16:29:48.185745,13,-6,25,36,22,4,6,11
16:29:48.199737,-47,-97,-25,44,2,-1,-17,-26
16:29:48.207732,-93,-128,-128,1,-128,-58,-13,-27
16:29:48.222719,88,127,54,127,-128,-3,6,24
16:29:48.229718,-38,-75,5,127,127,51,3,-7
16:29:48.244709,24,30,74,-97,-128,-57,0,9
16:29:48.245706,-29,-88,-29,127,127,96,8,-6
16:29:48.259700,30,65,72,127,-128,-13,3,10
16:29:48.267691,-3,-35,12,127,127,13,6,4
16:29:48.282685,3,9,14,28,-38,-6,-5,-1
16:29:48.289681,-30,-65,-63,67,-52,16,-8,-10
16:29:48.304672,22,18,27,127,127,80,19,17
16:29:48.305672,28,70,116,127,80,-10,8,11
16:29:48.327657,18,43,48,127,-101,-26,-8,0
16:29:48.327657,-14,-38,-24,68,127,35,12,4
16:29:48.342648,-5,-18,-34,-128,-79,-21,-7,-7
16:29:48.349644,-4,-8,45,127,-54,-30,-9,1
16:29:48.364635,13,13,-22,62,-88,12,3,5
16:29:48.365631,-15,-37,-1,127,127,23,5,0
16:29:48.379625,-27,-60,-78,-128,-128,-50,-10,-9
16:29:48.387618,-38,-76,46,127,127,119,3,-12
16:29:48.402611,8,0,-40,-95,-128,-11,3,8
16:29:48.417603,-47,-73,-38,34,108,-45,-17,-21
16:29:48.432592,31,59,83,127,-59,-28,9,13
16:29:48.432592,-3,-1,-2,-24,39,-9,3,1
16:29:48.439589,1,12,-5,-128,-128,-46,-9,-2
16:29:48.447582,-52,-90,5,30,63,34,-13,-27
16:29:48.462572,1,10,4,80,4,38,-1,-4
16:29:48.469570,33,52,28,67,127,-7,13,17
16:29:48.484560,30,61,31,66,109,24,12,13
16:29:48.485558,24,64,58,-90,-85,14,2,4
16:29:48.500549,-7,-35,-18,127,8,36,6,-1
16:29:48.507545,-5,-20,-6,44,9,-44,-5,-3
16:29:48.529530,27,33,-14,-128,-63,-104,7,15
16:29:48.530532,-2,-8,4,-33,-14,19,-3,-6
16:29:48.544524,-23,-30,-6,-15,-123,0,-9,-16
16:29:48.545520,-45,-49,-32,-112,-18,-23,-18,-25
16:29:48.559515,12,7,13,104,-87,14,8,8
16:29:48.567510,5,0,3,-21,82,-1,1,1
16:29:48.582501,-50,-95,-37,98,127,46,6,-8
16:29:48.589493,48,101,58,-128,35,-1,8,16
16:29:48.604487,-14,-29,-16,-91,-128,31,2,-6
16:29:48.605487,17,34,43,37,-5,42,8,9
16:29:48.619478,3,5,0,-116,-12,46,5,-1
16:29:48.634466,1,17,20,49,90,52,-1,-3
16:29:48.642464,-42,-72,-53,-55,-16,-24,-12,-17
16:29:48.649457,-7,-20,-14,120,92,-1,-3,-1
16:29:48.664451,10,10,-2,78,127,39,7,9
16:29:48.672445,16,9,-30,-128,-128,-19,6,11
16:29:48.679438,12,41,26,-6,-45,-8,-5,-3
16:29:48.687436,0,14,18,-5,-11,9,-4,-3
16:29:48.702427,12,31,34,127,127,23,0,-1
16:29:48.709419,-4,-8,-1,1,-128,-38,-1,4
16:29:48.724410,-7,-9,-27,-127,-128,-16,-3,-3
16:29:48.725410,8,19,-13,-54,126,2,-2,-1
16:29:48.739404,5,19,6,-51,-128,-1,0,2
16:29:48.747399,11,22,13,-16,127,8,4,4
16:29:48.762390,0,9,12,18,-128,-8,-4,-6
16:29:48.769383,-8,-8,-6,53,33,28,-4,-4
16:29:48.784377,16,29,16,-58,-6,8,7,9
16:29:48.785376,2,7,15,98,25,-6,1,4
16:29:48.799364,-4,1,-16,-43,81,36,-6,-5
16:29:48.815358,5,9,8,114,-128,-22,0,5
16:29:48.829349,-4,1,6,9,-9,-29,-1,-1
16:29:48.830345,-13,-18,1,115,127,-32,-6,-8
16:29:48.852336,-8,-6,-13,-56,-97,-5,-5,-4
16:29:48.853333,1,2,2,-19,-120,-30,-1,1
16:29:48.859330,22,40,51,127,127,9,7,5
16:29:48.867326,-17,-41,16,115,-22,10,6,0
16:29:48.882316,5,6,-22,-78,56,-5,1,4
16:29:48.889312,3,9,-3,114,127,32,4,3
16:29:48.904300,5,-1,2,-17,-45,4,2,2
16:29:48.905302,4,7,2,8,-10,-6,-1,2
16:29:48.920290,5,21,107,127,127,97,2,-5
16:29:48.927289,-11,-23,-35,-33,27,1,0,-5
16:29:48.957267,-3,5,-9,33,-128,3,-7,-3
16:29:48.958266,0,5,23,59,34,25,-1,1
16:29:48.964264,5,12,9,-71,47,-4,5,4
16:29:48.965264,3,11,51,127,12,-24,-2,4
16:29:48.980254,-8,-8,-17,-3,14,10,1,0
16:29:48.995243,-20,-44,-58,4,127,59,-2,-5
16:29:49.009235,-11,-11,0,7,127,-20,-5,-4
16:29:49.010235,-6,-14,23,127,-42,5,4,5
16:29:49.025225,7,14,0,-76,-128,-77,-4,0
16:29:49.032220,7,60,15,-45,61,-24,-13,-7
16:29:49.039219,-42,-128,-83,4,127,30,8,-1
16:29:49.047211,26,36,25,20,127,127,23,14
16:29:49.062205,15,38,45,35,127,14,20,21
16:29:49.077196,30,66,37,-93,-128,-3,-2,4
16:29:49.092187,6,12,-5,-58,41,37,3,5
16:29:49.092187,5,2,-4,-59,-36,-6,2,2
16:29:49.107178,-39,-58,-30,33,-89,62,-13,-25
16:29:49.108175,3,2,3,-19,-87,-13,1,1
16:29:49.130161,6,2,-3,-29,-35,-8,2,3
16:29:49.130161,-1,-3,2,-1,4,-1,2,1
16:29:49.145151,-14,-6,-5,-1,6,-1,4,4
16:29:49.152150,7,2,1,2,3,5,-4,-4
16:29:49.167141,0,4,3,7,10,9,3,2
16:29:49.168137,19,1,-6,-4,-8,-35,3,-23
16:29:49.182131,-42,-2,2,0,7,21,1,25
16:29:49.189128,47,-6,-24,-28,-35,-41,-24,-56
16:29:49.205116,27,-4,2,-3,-6,-77,20,30
16:29:49.212113,127,29,15,12,28,55,127,124
16:29:49.227104,-96,-54,-27,-24,-49,-86,-31,-128
16:29:49.228101,-56,17,6,-1,12,-13,124,-23
16:29:49.250087,24,-9,-4,0,-8,-12,-94,96
16:29:49.250087,-7,23,7,9,-3,12,127,-128
16:29:49.265081,-32,-78,-42,-37,-10,-46,-128,127
16:29:49.272076,127,68,28,29,0,-28,-69,-19
16:29:49.287067,61,7,22,29,50,74,-23,10
16:29:49.288066,91,31,0,-10,12,15,-43,127
16:29:49.302057,-67,2,1,6,2,0,96,-97
16:29:49.310053,-41,11,-12,-12,-59,-13,16,-34
16:29:49.325040,-14,-24,-31,-128,-128,-36,-30,-18
16:29:49.332039,-17,27,-37,-128,-128,-48,-63,-74
16:29:49.355024,-91,-106,-30,127,127,22,-51,32
16:29:49.355024,-128,35,3,-24,-82,33,-14,-52
16:29:49.362020,-32,11,66,-128,-104,-49,48,-8
16:29:49.377009,127,39,127,127,88,102,-16,127
16:29:49.385007,-66,-2,9,127,127,22,63,-70
16:29:49.392002,35,3,45,116,127,-4,6,-17
16:29:49.407990,-12,16,-68,-61,-80,3,17,-17
16:29:49.407990,-75,-28,4,127,127,-41,-32,-41
16:29:49.421981,-28,-19,-18,-3,-38,-75,-17,48
16:29:49.429976,-20,7,17,39,25,80,43,117
16:29:49.444970,20,3,-4,-40,127,25,1,18
16:29:49.451966,-15,-2,-15,127,127,5,-125,-27
16:29:49.466954,-8,-11,3,-56,-128,-49,-5,-30
16:29:49.467953,-85,3,-2,12,127,18,-24,-73
16:29:49.481944,-13,-5,-8,-36,-95,-78,-23,-5
16:29:49.489942,14,-3,26,59,110,7,4,20
16:29:49.504933,-1,14,30,105,106,-2,-2,-12
16:29:49.519924,-15,-13,-20,-60,-6,9,-3,-18
16:29:49.526919,2,31,-5,87,8,6,12,12
16:29:49.527919,-61,9,-14,22,60,18,-12,-55
16:29:49.541908,-23,-11,-19,55,18,-27,-46,-50
16:29:49.549905,-7,6,33,19,19,0,17,12
16:29:49.564894,1,1,-9,87,127,14,3,2
16:29:49.571889,3,3,-20,-46,127,16,5,-1
16:29:49.586881,-6,5,49,127,127,42,-1,-8
16:29:49.587881,2,-11,5,2,117,7,31,14
16:29:49.601871,0,10,29,71,68,-12,-20,-3
16:29:49.609868,9,11,-1,-70,-128,3,15,12
16:29:49.624856,23,-3,-7,12,-128,-11,-10,1
16:29:49.631853,2,5,1,10,32,15,7,5
16:29:49.646843,-2,-10,-34,-79,-37,-4,2,2
16:29:49.647842,-13,-3,32,67,57,-12,-8,-8
16:29:49.669828,17,-8,-27,-34,10,11,1,-9
16:29:49.669828,36,-23,-14,-128,-128,-95,-37,-23
16:29:49.684820,-5,-3,-27,49,41,20,-7,-14
16:29:49.691815,4,1,14,-3,9,22,20,21
16:29:49.707806,-2,2,-1,-11,-42,-3,-24,-1
16:29:49.707806,-12,-11,-1,20,46,-1,4,-17
16:29:49.729792,13,10,9,-16,-16,0,1,5
16:29:49.730791,-10,-6,-1,-12,-26,-17,-32,24
16:29:49.744785,2,-5,1,52,8,-27,-58,-4
16:29:49.752780,9,2,-15,-65,-61,23,21,37
16:29:49.767768,-11,-7,2,27,25,-2,-6,-9
16:29:49.767768,-1,3,-14,-17,-63,-9,-1,-3
16:29:49.789758,-4,-1,-7,-128,-75,-10,-4,-6
16:29:49.789758,1,-3,-12,33,-69,1,-8,2
16:29:49.804748,11,-2,1,-4,24,-3,1,4
16:29:49.811744,-2,-5,-6,8,11,10,46,25
16:29:49.827733,67,16,-9,22,9,11,15,57
16:29:49.827733,-1,5,8,5,24,0,-10,-1
16:29:49.849721,-4,2,5,-128,-71,-16,-7,-9
16:29:49.850718,-6,-7,-7,24,23,7,-13,0
16:29:49.864712,5,7,9,32,20,0,13,6
16:29:49.872703,0,-9,-4,-19,30,-1,-3,13
16:29:49.887694,-2,1,-2,-6,-38,5,1,-3
16:29:49.887694,4,-6,-1,-11,-3,-1,-4,-7
16:29:49.909684,-1,1,-3,-94,-72,-12,6,1
16:29:49.910683,-1,-1,-2,-8,16,-2,-1,-4
16:29:49.924675,1,2,-4,-128,-87,-3,1,-1
16:29:49.932669,-6,-5,-5,20,2,-10,-7,-8
16:29:49.947658,12,6,2,-1,6,1,-19,27
16:29:49.962648,2,-1,1,-7,-6,7,24,16
16:29:49.962648,-1,-2,-2,0,16,-5,7,10
16:29:49.969647,-4,-4,-5,3,-11,-9,7,1
16:29:49.992629,-3,-3,-1,0,6,0,-2,-7
16:29:49.992629,1,-2,1,-17,12,4,2,0
16:29:50.007624,1,-4,-3,-10,-24,-6,-1,-2
16:29:50.014619,4,2,1,28,-3,2,2,4
16:29:50.022611,-2,-4,0,3,-20,-2,-3,-3
16:29:50.029610,-5,-1,-4,-4,4,1,-1,0
16:29:50.044601,1,0,1,0,3,2,-1,4
16:29:50.052597,-7,-5,-3,-3,-6,-4,-2,-4
16:29:50.067587,-1,-3,0,4,-9,-1,-2,1
16:29:50.074582,-1,-2,1,-33,17,-2,-3,0
16:29:50.089570,-4,-1,-1,2,41,7,-4,0
16:29:50.090571,-3,0,-2,-10,-9,-4,-3,-3
16:29:50.104564,0,1,1,1,1,-2,-7,1
16:29:50.119552,-2,-3,0,2,0,0,-3,0
16:29:50.127550,-3,2,-2,1,-3,-5,-4,-6
16:29:50.134545,1,-1,-3,-5,-3,-2,-1,1
16:29:50.149536,-1,0,-3,-9,0,8,8,-4
16:29:50.150533,-6,-2,1,-33,33,11,-3,0
16:29:50.164527,0,-1,-3,-20,-24,-6,-6,-3
16:29:50.172522,-1,-4,-4,0,65,9,5,-1
16:29:50.187513,0,1,-1,-3,2,2,4,2
16:29:50.194508,-2,-3,-3,-2,-4,-1,-1,1
16:29:50.209499,-1,0,-2,-3,0,-1,2,0
16:29:50.210497,-10,-1,-2,-1,-1,0,-2,-5
16:29:50.224487,0,-3,-6,-6,-13,-8,-12,-8
16:29:50.232485,-3,0,-2,-1,12,1,-4,0
16:29:50.247476,1,1,1,15,1,-4,-5,1
16:29:50.254470,-1,-1,0,18,5,-2,7,9
16:29:50.269462,-3,-1,1,-4,-2,-2,0,2
16:29:50.270459,-2,0,1,-1,45,1,-4,-3
16:29:50.284450,0,0,-3,-6,6,-3,-1,-4
16:29:50.292448,-5,-3,0,1,7,-4,2,-3
16:29:50.307439,-2,0,-1,0,-2,-10,-13,-4
16:29:50.314435,-3,0,2,3,1,0,-9,-10
16:29:50.329424,1,1,-4,-4,-7,-23,-31,19
16:29:50.330422,-6,-4,-4,-6,-7,-2,-1,-9
16:29:50.344416,-3,-3,-2,-4,-2,2,2,-2
16:29:50.359405,-1,-1,-2,-6,0,2,6,2
16:29:50.367402,-3,-2,-2,2,-4,-3,-4,-3
16:29:50.374395,-3,-3,-1,2,-1,-3,-3,-1
16:29:50.389387,-1,1,-1,-1,-2,0,-2,2
16:29:50.390388,1,2,-1,0,2,6,3,1
16:29:50.405379,2,0,-1,0,-1,-4,11,27
16:29:50.412374,-2,-1,1,-1,1,-1,-1,6
16:29:50.427365,-3,-3,-4,-3,-5,-5,-23,14
16:29:50.434358,-4,-4,-3,-2,-4,-1,4,-9
16:29:50.449350,0,-2,-1,1,-1,-2,5,-3
16:29:50.450348,-3,2,-4,-4,-5,-9,-6,-8
16:29:50.465342,0,-3,0,-2,-4,0,6,-1
16:29:50.472338,6,4,1,5,6,5,15,18
16:29:50.487328,-9,-4,-3,-3,-3,-8,-8,-10
16:29:50.494321,-13,-7,-1,-1,0,-3,-9,-4
16:29:50.509312,-1,-1,2,-3,-1,10,37,-5
16:29:50.510311,1,-4,3,-4,2,7,-8,6
16:29:50.525302,-1,-2,-5,-1,-2,-2,-5,4
16:29:50.532300,-2,-3,-2,-1,1,-4,2,-2
16:29:50.547291,-1,1,1,1,2,9,18,-5
16:29:50.555287,-1,-1,0,-1,2,6,-1,-4
16:29:50.577273,2,-3,0,-1,-4,1,13,10
16:29:50.577273,-1,0,-3,-1,0,-4,-1,1
16:29:50.585267,-5,-1,-4,-4,-4,-4,-8,-6
16:29:50.592264,-2,-1,-1,0,-4,4,3,4
16:29:50.607255,2,2,1,6,5,-4,-35,1
16:29:50.615247,-4,-4,-3,-7,-4,-3,6,-2
16:29:50.630238,2,1,0,1,-2,4,14,12
16:29:50.630238,-2,-4,0,-1,3,13,0,1
16:29:50.652227,-3,-1,-4,1,-2,-5,2,-3
16:29:50.653223,-1,-1,0,0,-2,2,3,-6
16:29:50.667218,0,-3,-3,3,2,0,-3,-4
16:29:50.675211,-3,-3,-1,-1,4,-1,0,0
16:29:50.690203,1,1,0,3,1,3,0,1
16:29:50.690203,-2,-3,-1,-1,1,3,2,2
16:29:50.705194,-3,-2,0,-1,2,10,11,-1
16:29:50.712189,3,2,3,1,-4,-4,8,7
16:29:50.727181,3,-1,2,3,2,4,-6,1
16:29:50.735172,0,-1,1,1,4,-2,-12,-1
16:29:50.750164,-3,-1,-2,-2,-4,-9,-7,-2
16:29:50.750164,-3,-1,-1,0,2,1,-1,-14
16:29:50.765158,-2,-1,-3,-1,0,-2,-4,0
16:29:50.772153,0,-3,-1,-2,1,-2,6,-1
16:29:50.795136,0,0,-1,-4,-5,5,0,-1
16:29:50.795136,-1,-1,0,0,0,-3,-3,0
16:29:50.810128,1,-1,-3,-1,1,17,30,0
16:29:50.817125,-2,3,1,1,-3,-7,-8,-2
16:29:50.825120,-3,-2,1,-3,-5,-3,0,-1
16:29:50.832116,-3,-2,-3,-2,0,-1,-4,-3
16:29:50.847104,-1,-1,-1,0,-1,4,-4,-7
16:29:50.855102,-3,1,-2,-1,-4,-3,-12,-7
16:29:50.870093,1,-2,-4,0,1,10,21,6
16:29:50.870093,-7,0,-1,0,-1,-4,-1,-4
16:29:50.885083,-6,-4,2,-1,-1,-8,-20,-15
16:29:50.892079,3,2,1,-1,-1,8,14,17
16:29:50.907068,-1,-2,2,1,1,-8,-31,-1
16:29:50.915066,-4,-1,-1,-2,0,-4,2,0
16:29:50.930056,2,2,0,-5,-3,-5,-25,-11
16:29:50.937051,1,-2,-2,-4,2,10,13,10
16:29:50.945044,0,1,-1,2,-1,-1,4,5
16:29:50.952042,-4,-4,-2,1,-3,-3,0,-2
16:29:50.967031,-7,-2,0,-2,-1,-2,-20,-13
16:29:50.975028,-4,-5,-2,-2,-3,5,13,5
16:29:50.990019,1,-2,0,0,-2,1,1,0
16:29:50.997012,-4,-2,-1,-4,2,-5,-13,-8
16:29:51.019998,6,2,-2,-3,-2,-6,-6,8
16:29:51.019998,10,-2,1,-3,1,4,11,7
16:29:51.026996,-6,-5,-5,-7,-7,-4,4,1
16:29:51.034991,1,-1,0,2,7,7,10,10
16:29:51.049982,2,1,-1,0,-1,-5,-3,-1
16:29:51.056976,-1,0,-1,0,0,-4,-5,-2
16:29:51.071968,0,-5,-5,-3,0,-7,-5,-1
16:29:51.072967,-3,-5,-3,-5,-7,-2,-3,-4
16:29:51.086956,-9,-1,-3,-1,-3,-17,-33,-7
16:29:51.124934,6,1,0,-2,-2,10,16,10
16:29:51.124934,4,1,-1,1,0,4,11,6
16:29:51.125932,-1,-2,-2,-2,-1,-2,-2,-7
16:29:51.131931,-5,-2,-6,-4,-2,0,-2,-7
16:29:51.132931,-3,-2,-4,-2,-1,-1,-3,-1
16:29:51.148920,-2,1,-1,-1,-2,-5,-2,-1
16:29:51.154917,-1,0,-3,-3,4,10,15,4
16:29:51.176903,2,2,-1,3,4,4,-1,-3
16:29:51.177903,-6,-7,-3,-1,-1,-2,-7,-2
16:29:51.191892,-5,-2,0,0,-5,-13,-17,4
16:29:51.192894,3,0,-1,-1,3,3,3,12
16:29:51.207885,-4,-1,0,-1,-1,-3,-1,-7
16:29:51.214880,-8,-6,-4,-5,-1,-1,10,-4
16:29:51.229871,-1,2,1,-2,-4,-4,-5,-1
16:29:51.236864,-1,-3,-2,0,-4,-2,10,6
16:29:51.251856,0,-3,-2,-2,2,2,3,1
16:29:51.252854,-4,-1,1,1,0,-1,5,-2
16:29:51.266846,4,2,-3,1,1,17,20,-5
16:29:51.274844,-5,-1,2,-2,1,-3,-7,-11
16:29:51.289834,-6,-4,-4,0,2,3,11,4
16:29:51.297829,-7,-2,1,-2,-1,-5,-14,-14
16:29:51.312817,1,-2,-2,-3,1,4,20,12
16:29:51.312817,-5,-4,4,0,-1,-15,-22,0
16:29:51.326811,13,1,-1,-2,2,17,39,34
16:29:51.334806,-7,-6,-1,-2,5,6,-33,-2
16:29:51.349797,2,-1,-3,-1,-7,-7,17,15
16:29:51.357790,2,1,-1,0,-1,-16,-19,-3
16:29:51.379779,-1,1,1,0,2,-3,12,-4
16:29:51.380775,-4,0,1,-3,1,2,-4,-2
16:29:51.386775,0,2,-1,2,-2,-4,-4,-3
16:29:51.394770,0,1,0,-1,-1,6,4,12
16:29:51.417753,-1,1,0,-3,-3,-5,-3,-7
16:29:51.417753,-3,0,-4,-3,1,5,8,-5
16:29:51.432745,4,2,2,2,4,1,-16,5
16:29:51.432745,-3,-6,0,-3,-3,-3,-4,-6
16:29:51.447734,16,5,1,1,6,6,-10,16
16:29:51.454733,-11,-3,2,1,1,1,9,-8
16:29:51.469724,-1,2,3,3,1,8,-2,-4
16:29:51.476719,-1,-2,0,-3,0,2,1,2
16:29:51.491709,-4,-2,-3,1,-4,-5,15,-1
16:29:51.492706,-2,0,2,-2,-3,-5,-14,-10
16:29:51.507697,-2,-1,1,-2,1,-1,-4,-6
16:29:51.514696,-3,-1,-1,0,1,3,-2,-5
16:29:51.529687,-3,-2,-2,-3,-1,2,-4,-3
16:29:51.537679,-2,1,1,1,1,-4,2,-3
16:29:51.552669,7,4,4,3,5,33,26,13
16:29:51.552669,-2,3,2,1,3,11,8,4
16:29:51.574656,-3,-3,-1,-1,-4,-1,11,10
16:29:51.575656,9,1,-1,-3,0,2,1,4
16:29:51.589650,-3,-5,0,2,0,-8,-11,-4
16:29:51.597643,-7,-2,0,0,6,9,22,6
16:29:51.612632,-3,-1,2,-3,-2,0,-3,-4
16:29:51.612632,-1,-3,-1,-2,0,-1,-1,1
16:29:51.627623,-4,0,-1,-2,-1,12,17,-5
16:29:51.634622,-1,3,2,1,1,5,4,-3
16:29:51.649613,4,5,1,1,0,14,9,6
16:29:51.657608,2,1,-1,1,-3,-12,-13,-10
16:29:51.672596,-9,-1,0,0,1,4,-9,-5
16:29:51.672596,-5,-4,0,0,-3,1,-2,-3
16:29:51.694584,-6,0,-1,0,0,-8,-17,-6
16:29:51.695583,-3,-1,-1,-2,-1,2,2,2
16:29:51.709574,0,1,1,1,1,-1,2,-2
16:29:51.717571,0,0,-1,-3,-2,-1,-1,-1
16:29:51.732561,-2,-4,-1,-3,2,3,1,-2
16:29:51.732561,0,-1,-1,-2,1,0,3,-2
16:29:51.754548,-6,-5,-1,-1,-4,2,9,-6
16:29:51.755545,-7,-4,0,1,2,-4,-2,-3
16:29:51.769538,5,0,-1,-4,-4,4,29,-3
16:29:51.777531,-2,-3,-2,-1,-2,-2,-5,-1
16:29:51.792521,-3,-3,0,-1,-5,-2,-11,-9
16:29:51.792521,-1,2,1,-2,3,3,3,5
16:29:51.807516,-2,0,-4,-2,-4,-4,-4,-3
16:29:51.814511,2,-2,-1,-4,0,4,-8,-4
16:29:51.829501,6,0,0,-3,-3,8,3,13
16:29:51.837497,5,-1,-3,-3,-1,4,11,10
16:29:51.852488,-3,-2,-2,-3,0,9,35,-9
16:29:51.859483,-2,-1,0,1,4,2,-4,-2
16:29:51.867479,-6,-3,-6,-4,-5,-3,5,-8
16:29:51.874473,0,-5,0,-3,-1,0,3,-1
16:29:51.889462,5,1,-2,-1,-4,2,5,6
16:29:51.905453,-4,-2,-2,-4,-1,3,6,-7
16:29:51.912451,6,1,-1,-3,1,7,24,23
16:29:51.919443,-4,1,-3,-3,0,-6,-14,-9
16:29:51.927442,-5,-1,-3,-1,-3,-4,3,0
16:29:51.934434,0,-1,-1,1,2,3,-19,6
16:29:51.950427,-4,-2,-4,-3,-7,-9,-3,-7
16:29:51.957423,-1,-2,-2,0,1,1,6,7
16:29:51.972411,2,0,0,2,-1,-1,-1,-1
16:29:51.979407,-6,-4,-1,-1,0,0,-12,-11
16:29:51.994399,-4,2,-1,0,-2,-4,10,-1
16:29:51.995400,0,-1,-1,-1,-2,-3,-9,-4
16:29:52.009389,0,0,-2,-3,-1,7,0,-2
16:29:52.017387,2,2,0,0,3,-3,6,4
16:29:52.032377,3,2,2,-1,-3,2,5,11
16:29:52.047368,-2,1,-3,-2,5,1,8,3
16:29:52.054363,-2,3,0,-2,1,-2,-4,-4
16:29:52.055360,-4,-4,-4,0,-2,-2,1,0
16:29:52.069352,14,-2,2,0,1,0,-6,-2
16:29:52.077350,-3,-3,-3,-3,2,-11,-33,-3
16:29:52.092341,3,0,-1,1,-3,-1,3,-5
16:29:52.100336,-8,-1,0,-3,0,0,6,6
16:29:52.114323,-1,-2,-2,-2,-4,-5,8,-3
16:29:52.115326,1,-2,0,-4,0,1,1,1
16:29:52.130316,5,0,4,0,-2,-8,8,24
16:29:52.137313,-1,2,-3,0,-3,-5,-6,-5
16:29:52.152303,1,-1,-2,0,-3,0,3,3
16:29:52.159296,5,-3,0,0,3,16,52,2
16:29:52.175289,2,3,3,3,2,2,-3,-5
16:29:52.175289,4,2,2,3,6,11,17,10
16:29:52.190280,-3,-4,-3,1,-1,-7,5,-4
16:29:52.197275,-1,-2,-4,-1,2,5,-9,-10
16:29:52.212266,4,2,-1,2,2,1,6,7
16:29:52.220258,-3,0,1,-2,0,10,3,2
16:29:52.235252,-1,0,0,0,-3,-12,-10,-7
16:29:52.235252,1,-4,-4,-4,-5,0,3,-4
16:29:52.257239,0,-1,-2,2,1,5,8,-5
16:29:52.258239,-1,2,0,0,2,6,-8,3
16:29:52.272229,-1,-2,-3,-4,0,-1,0,1
16:29:52.280221,-1,-4,-3,0,0,8,9,1
16:29:52.295213,-3,-5,-3,0,-3,-4,0,-11
16:29:52.295213,-2,0,2,-1,-4,-2,-10,-5
16:29:52.310206,-4,-1,0,-2,-1,-6,1,-7
16:29:52.317201,-3,-4,-5,-5,-1,-1,-11,-5
16:29:52.332189,2,0,1,-1,3,1,4,2
16:29:52.340184,-4,-3,-3,-3,-4,5,36,-5
16:29:52.355177,-1,-1,-3,0,0,2,-1,-4
16:29:52.362174,0,3,-2,1,-3,-1,1,-3
16:29:52.370169,-3,-5,-3,-2,-2,-4,-3,-5
16:29:52.377165,2,1,0,-1,3,5,-6,14
16:29:52.392156,0,-1,-2,-1,-4,-3,-3,-4
16:29:52.400150,-5,-2,-4,-1,-3,-3,-6,-8
16:29:52.415141,0,-2,-1,-3,0,-2,-1,-3
16:29:52.422137,-1,0,-1,-2,0,-1,-1,-1
16:29:52.430132,1,1,-2,-3,-3,-2,-6,-4
16:29:52.437126,-1,1,-5,1,3,5,8,4
16:29:52.452119,-3,-1,-5,-1,-2,-4,0,-3
16:29:52.459134,-1,1,-1,-5,-6,-4,0,-1
16:29:52.475103,1,-2,-2,-1,-3,-10,-8,0
16:29:52.482100,0,-1,4,1,-2,0,-9,-8
16:29:52.490094,-5,-3,-2,-3,-1,-7,-7,-5
16:29:52.497088,0,-1,-1,-1,1,-1,-7,-5
16:29:52.520086,-2,-3,1,1,0,-5,6,2
16:29:52.520086,-5,-5,-3,-2,-1,-3,17,-10
16:29:52.535068,3,1,1,1,-1,6,0,6
16:29:52.542063,10,3,4,-1,-3,-1,1,2
16:29:52.550059,-1,2,-1,-2,-2,-7,-5,-6
16:29:52.557051,-6,-2,-4,-2,-1,-3,5,-13
16:29:52.572042,-3,-2,-2,-1,-1,-2,-7,-6
16:29:52.580038,-1,-1,-4,-3,2,3,-2,1
16:29:52.602026,2,-1,-1,-1,1,6,1,7
16:29:52.603023,-3,0,-4,1,3,-1,1,-5
16:29:52.610022,2,2,0,1,1,-1,7,0
16:29:52.617017,4,2,2,4,0,9,-1,6
16:29:52.640000,-3,-1,-1,1,-3,-1,1,-1
16:29:52.641003,-1,-2,0,-2,1,2,9,0
16:29:52.654994,4,0,0,1,-4,-4,-19,10
16:29:52.661989,-6,-3,-3,0,-1,1,2,1
16:29:52.669985,-2,1,0,-1,-4,-1,-7,-1
16:29:52.684976,-8,-3,-1,1,-1,-1,2,2
16:29:52.691970,-3,-5,0,1,3,0,6,8
16:29:52.699966,-2,-3,-1,-3,1,-4,-2,-3
16:29:52.714957,-1,1,-1,-1,1,-4,0,-2
16:29:52.721953,1,0,-2,-2,3,5,-9,-4
16:29:52.729946,-3,1,-1,-1,-1,-1,3,1
16:29:52.736942,-7,-1,-2,-3,-2,-1,-2,-4
16:29:52.751932,-2,-1,-1,0,0,-1,2,-1
16:29:52.759929,-2,-2,-2,-1,-1,-3,-12,2
16:29:52.774917,2,1,1,1,-3,-4,2,-6
16:29:52.781913,-1,1,-1,0,2,0,1,-1
16:29:52.789908,-2,-3,-3,-3,2,2,0,4
16:29:52.804902,-4,-2,-3,-2,-3,-2,0,-1
16:29:52.811894,-1,-3,-2,-3,-2,-7,-14,-1
16:29:52.827887,9,0,0,-2,-1,0,0,0
16:29:52.849872,-5,2,-1,-1,-1,-10,-20,-10
16:29:52.850870,-1,-1,-5,-1,-3,-3,-17,-3
16:29:52.850870,5,1,-1,-2,1,-1,-10,-3
16:29:52.856867,-2,-1,-1,0,2,-3,-2,-5
16:29:52.872858,1,1,-4,-4,1,1,1,7
16:29:52.879855,-5,-1,-1,0,-1,-1,-7,-4
16:29:52.901841,-2,-1,-3,-2,-1,2,18,3
16:29:52.902839,0,-4,1,1,5,4,1,-3
16:29:52.916830,-3,-2,-1,0,-3,-4,-9,-6
16:29:52.917830,-6,-6,-1,-1,-1,-5,-1,-11
16:29:52.932821,0,1,0,1,0,-2,5,6
16:29:52.939819,2,-1,-4,-4,1,-3,-1,2
16:29:52.961803,0,-1,0,0,-4,-7,0,1
16:29:52.962803,-3,-3,-2,1,-3,-4,1,-3
16:29:52.976795,0,-1,0,-1,-2,-4,-7,-6
16:29:52.977795,-1,-1,-3,-1,0,6,-2,0
16:29:52.991786,-4,-1,-1,-1,0,-8,-11,4
16:29:52.999779,4,-1,2,-1,1,5,9,26
16:29:53.014773,2,0,1,2,1,6,14,7
16:29:53.021767,-5,-2,-1,-3,0,4,-2,-9
16:29:53.052746,-2,-3,-3,1,-3,-5,2,-7
16:29:53.052746,-3,0,1,-2,1,2,-1,-1
16:29:53.053746,-3,-2,-3,-2,-1,-2,-6,-2
16:29:53.059742,-6,-3,-1,-4,0,2,-4,-12
16:29:53.082728,1,1,-2,-3,-3,2,7,4
16:29:53.082728,-7,-2,-2,3,1,-2,3,-5
16:29:53.096718,-3,-1,0,-2,2,6,8,-1
16:29:53.097720,0,-1,-1,-1,-1,-2,-3,6
16:29:53.111747,-4,-2,0,-3,-7,-13,-11,-2
16:29:53.119706,-2,-2,-2,-5,0,3,7,8
16:29:53.134696,-2,1,1,-2,-1,-3,-7,-7
16:29:53.141693,-1,-2,-3,-1,-1,-13,-15,-5
16:29:53.156681,-1,-4,-3,-3,-3,0,0,-8
16:29:53.157682,-2,1,0,1,-2,-1,-3,-10
16:29:53.171680,7,2,1,1,2,8,12,13
16:29:53.179668,-9,-4,-4,-1,-1,3,-9,-10
16:29:53.194659,-1,1,-1,0,-5,-11,-5,-4
16:29:53.201658,-4,-1,-2,1,2,-8,-27,-13
16:29:53.216644,-3,1,-3,-3,-3,-4,3,5
16:29:53.217643,-1,1,-1,1,2,1,-4,-4
16:29:53.231638,-4,0,-3,-3,-4,-13,-36,-10
16:29:53.239631,-1,-2,-1,-2,-1,6,4,4
16:29:53.262617,-1,-2,-3,-2,-3,-1,1,-2
16:29:53.262617,0,0,-2,0,2,-1,0,-3
16:29:53.277609,-1,2,0,-1,-1,-3,-3,-1
16:29:53.277609,2,2,0,4,2,10,-11,3
16:29:53.292598,0,-2,1,-3,-1,-4,1,-2
16:29:53.299597,-1,0,-1,-4,-3,-2,-18,-7
16:29:53.322581,-1,0,-1,2,8,14,21,3
16:29:53.322581,-4,-4,-1,-1,1,-7,-16,-2
16:29:53.337571,-2,-1,0,-1,1,-11,-20,-7
16:29:53.337571,0,0,0,2,-2,-4,2,-8
16:29:53.359560,1,-1,-2,1,0,1,1,-2
16:29:53.360556,-1,1,-2,-1,-6,-7,-2,-3
16:29:53.374548,0,2,-1,0,0,1,7,3
16:29:53.382543,0,0,-1,-2,1,-3,-2,-6
16:29:53.397534,-5,-3,-2,1,-2,-10,-13,-4
16:29:53.397534,-3,-3,-1,-2,2,1,-1,-9
16:29:53.412524,1,0,-1,-1,-1,-8,-19,5
16:29:53.419523,-5,-1,-2,-3,-3,-1,-2,-5
16:29:53.434513,-2,-2,-1,-3,-4,-6,-6,-6
16:29:53.442512,8,4,-5,0,2,7,10,10
16:29:53.457496,-6,-2,-1,0,-1,-1,-1,-2
16:29:53.457496,2,-2,0,2,4,0,-2,4
16:29:53.472491,1,0,0,-1,-3,-10,-13,-4
16:29:53.479485,6,4,-3,0,0,8,12,8
16:29:53.494477,1,4,-1,3,-1,2,4,-4
16:29:53.502472,-5,-1,-4,-2,-1,3,-5,-16
16:29:53.517463,6,3,1,1,-2,3,6,15
16:29:53.518460,-6,-4,-1,2,-2,0,1,-8
16:29:53.532453,-4,-2,-3,-2,-6,-12,-11,-5
16:29:53.539448,9,4,1,-3,-4,-5,12,2
16:29:53.554437,0,0,-1,0,4,2,1,2
16:29:53.562433,-6,-1,-3,-1,1,1,-11,-3
16:29:53.592415,-6,-2,-4,-1,-4,-9,-18,-4
16:29:53.592415,-3,-2,0,-1,-2,-16,-27,1
16:29:53.593416,2,2,-2,1,0,3,22,19
16:29:53.599410,7,0,0,2,4,3,3,5
16:29:53.614401,-1,0,1,0,1,-7,-7,-1
16:29:53.629392,2,1,-2,0,-1,3,7,3
16:29:53.637386,-1,-1,-1,-4,-8,-6,-2,-3
16:29:53.637386,-2,1,0,-1,2,0,1,1
16:29:53.659374,-1,-2,0,0,-4,-4,0,0
16:29:53.660375,-5,-1,1,0,-3,1,-18,-7
16:29:53.682362,6,0,1,-2,1,-4,-24,24
16:29:53.683362,-4,0,1,1,-1,-1,8,-7
16:29:53.697350,-1,-1,-3,0,0,7,12,5
16:29:53.698350,-1,-3,0,-2,2,3,5,2
16:29:53.712343,-1,3,1,2,1,-4,-2,-4
16:29:53.719336,0,-2,2,-1,4,6,-8,7
16:29:53.734327,-2,-1,-3,-3,2,2,0,-4
16:29:53.742325,-6,-5,-2,-3,-3,0,-2,-1
16:29:53.757315,-3,-2,-1,-1,0,-1,-7,-6
16:29:53.765311,-1,2,0,-2,0,1,-13,0
16:29:53.772306,7,2,-2,-1,2,1,-17,29
16:29:53.779301,-3,-2,0,-5,-3,-2,-4,-5
16:29:53.794290,-1,-1,-1,1,0,2,2,-4
16:29:53.802288,-7,2,-2,-2,-1,1,-4,0
16:29:53.817278,-2,-2,0,-1,-1,-5,-3,0
16:29:53.824274,-4,-2,-3,-1,-1,-4,2,-4
16:29:53.832269,1,0,-1,0,-1,3,2,1
16:29:53.847257,-2,0,-2,1,-2,0,3,3
16:29:53.854256,3,-3,1,2,1,-1,-1,1
16:29:53.862250,-7,-4,0,-1,0,-1,-16,-8
16:29:53.878238,3,0,-3,-3,-1,-2,2,1
16:29:53.885235,5,0,0,-1,-3,-8,-14,1
16:29:53.900225,-5,-3,-3,-1,-1,-4,9,-7
16:29:53.900225,1,-1,-2,-2,-2,-3,3,0
16:29:53.915218,0,1,-1,-4,-1,0,9,9
16:29:53.922214,-3,-1,0,-3,1,-1,3,-1
16:29:53.937205,6,4,0,-1,0,-4,-2,6
16:29:53.944200,-1,-1,1,-4,2,5,2,-2
16:29:53.967186,0,-1,-2,-1,-3,1,-3,-3
16:29:53.968187,-3,-2,0,-3,-3,-2,-5,-3
16:29:53.982174,-6,-3,-2,-3,3,3,1,2
16:29:53.983174,1,0,0,-6,0,-7,17,6
16:29:53.997168,0,1,2,0,0,-3,-18,0
16:29:54.012158,-1,-2,-2,0,2,13,46,-5
16:29:54.019153,10,6,-2,-1,-2,-3,-2,5
16:29:54.020153,-4,-1,0,-3,0,-6,1,-8
16:29:54.035144,0,-1,-1,-2,-4,-5,1,-1
16:29:54.042140,-2,1,0,-1,-1,3,5,-1
16:29:54.057129,-1,0,-1,-1,-2,-5,-4,-1
16:29:54.065126,2,0,1,-2,4,2,-1,1
16:29:54.079116,-1,-3,-2,-2,-1,0,-1,0
16:29:54.080114,-2,-3,-3,-1,2,1,1,0
16:29:54.095106,-5,0,-2,-1,-7,-8,-2,-9
16:29:54.102103,-5,1,-3,1,-2,9,35,-1
16:29:54.117094,3,-1,3,0,-2,3,-2,0
16:29:54.125089,-5,-2,0,0,5,3,0,-3
16:29:54.140077,1,1,0,-1,0,6,5,8
16:29:54.140077,-1,-2,-2,0,-2,-4,-3,-4
16:29:54.155071,-1,-3,-1,-3,3,0,-12,-7
16:29:54.162064,-2,1,1,0,2,0,-2,4
16:29:54.177054,6,2,-4,-1,0,4,-2,7
16:29:54.192046,-5,-3,-2,-2,-2,0,5,1
16:29:54.200040,2,1,0,2,2,4,8,2
16:29:54.200040,-5,-5,-2,-1,2,-9,-31,-4
16:29:54.215031,-5,-3,-3,-1,-2,3,4,-3
16:29:54.222029,3,2,0,-2,-1,3,14,7
16:29:54.245012,-3,-1,0,0,0,4,-3,-6
16:29:54.245012,8,-4,-2,1,4,0,-3,2
16:29:54.260006,-3,-4,-1,0,-2,0,-6,-9
16:29:54.260006,-5,-2,1,-1,0,-1,-12,0
16:29:54.274997,-4,-2,2,-3,4,4,7,0
16:29:54.281992,8,-3,-4,-2,-1,-9,-9,14
16:29:54.297979,-6,-1,1,-4,-3,5,38,-12
16:29:54.304978,-5,-1,-3,1,-2,-2,-7,-5
16:29:54.326965,-1,-2,0,0,-3,-5,0,-7
16:29:54.327961,0,2,0,-2,3,7,-1,6
16:29:54.334960,0,4,-1,2,-1,-1,-4,-2
16:29:54.341954,0,0,-5,-1,-1,-2,-1,-1
16:29:54.356944,-5,0,-4,0,-1,5,-7,-6
16:29:54.364941,-4,4,1,0,-5,-4,3,-2
16:29:54.379929,2,2,0,2,2,2,-10,-3
16:29:54.379929,-3,-2,-1,-1,-2,3,-3,-4
16:29:54.394923,0,-3,-2,-1,-4,-9,-34,-7
16:29:54.401916,-5,1,-3,1,-3,-8,-5,-9
16:29:54.417907,2,0,-3,-4,0,-1,12,13
16:29:54.424905,0,1,4,6,9,1,3,2
16:29:54.439895,-1,-2,-1,-2,1,4,-6,-6
16:29:54.440891,-2,0,-1,1,2,-2,-1,-1
16:29:54.454886,3,1,0,0,-2,1,10,5
16:29:54.461879,0,-1,-2,1,1,-1,1,4
16:29:54.477872,-5,-5,-2,-1,-2,-5,-7,-5
16:29:54.491861,0,-1,4,0,0,6,4,3
16:29:54.499858,0,1,2,-4,-2,-6,-28,-5
16:29:54.500859,-4,2,0,0,-1,-1,5,-6
16:29:54.521844,1,-3,-1,-2,0,-1,2,2
16:29:54.522844,-3,2,0,-4,-1,-5,-12,-8
16:29:54.537835,0,4,0,-1,0,-5,-1,5
16:29:54.551823,0,-3,-1,-3,1,4,6,-1
16:29:54.559820,0,3,-2,-4,0,0,14,-1
16:29:54.560819,-3,-1,-3,-2,-2,2,-4,0
16:29:54.574812,1,-3,-3,1,1,0,8,-1
16:29:54.581805,-4,-3,-2,0,-1,5,26,-8
16:29:54.597797,8,1,-1,1,-1,-1,2,1
16:29:54.604794,0,1,2,-3,2,-2,-16,-2
16:29:54.619784,0,-1,-3,-1,-3,-1,2,3
16:29:54.627779,0,-3,-3,1,3,2,4,2
16:29:54.634775,-3,-1,1,0,-1,-5,-12,-5
16:29:54.641770,1,1,0,-1,1,3,5,-5
16:29:54.657761,3,1,-3,0,1,0,11,1
16:29:54.664757,-1,-1,0,3,3,-3,-2,-2
16:29:54.679747,5,3,4,2,1,-8,5,2
16:29:54.687741,4,0,3,2,-1,-12,-22,-4
16:29:54.694738,-1,2,-1,-1,-4,-4,2,-6
16:29:54.702736,-3,-1,1,0,0,-6,-2,-6
16:29:54.717724,2,0,2,-2,0,3,-3,1
16:29:54.724720,-4,1,1,1,-3,-1,0,-8
16:29:54.739710,-4,-1,-4,0,0,-2,2,3
16:29:54.747703,-3,-3,0,0,-1,-2,7,-8
16:29:54.754701,-2,1,-2,-1,-5,-10,-8,-5
16:29:54.769692,-2,-4,-1,-4,1,3,1,0
16:29:54.777689,-2,-1,-1,-1,-2,4,16,10
16:29:54.784682,2,3,-1,1,3,7,9,3
16:29:54.799674,1,-3,-3,-2,-2,-3,3,2
16:29:54.807669,2,-2,-4,-2,1,-4,1,-3
16:29:54.822658,-1,-2,0,-2,1,0,-4,-5
16:29:54.822658,6,0,-2,-4,-2,1,12,2
16:29:54.837647,-5,-2,-1,2,-2,-3,-16,-12
16:29:54.844646,1,0,-3,2,1,6,12,8
16:29:54.859637,-5,-4,-3,-3,-3,-8,-20,-3
16:29:54.867632,3,-3,-2,-2,1,6,-2,12
16:29:54.882622,-3,-1,-1,0,-4,1,20,9
16:29:54.882622,-3,-3,-2,-1,-2,-4,-6,-13
16:29:54.904609,0,0,-1,-1,2,-1,-2,-3
16:29:54.905609,-1,0,2,1,-2,-1,-4,-6
16:29:54.919597,-5,1,0,1,0,0,3,-6
16:29:54.927595,-1,2,1,1,1,1,-8,0
16:29:54.942584,-1,-3,-3,1,-3,-2,0,-1
16:29:54.942584,-7,-3,-3,-3,0,-7,4,2
16:29:54.957577,-4,0,-1,-1,0,-1,-6,1
16:29:54.964571,-4,-3,-2,-3,-4,-5,-2,-5
16:29:54.987557,-2,-2,0,1,3,-9,-39,-7
16:29:54.988557,-9,-2,-3,-3,-6,-6,-12,-9
16:29:55.002545,1,2,-2,-1,3,8,11,10
16:29:55.002545,1,2,-1,3,-3,1,-5,-4
16:29:55.024536,-2,-3,-3,-1,-3,-3,-3,-5
16:29:55.025534,-3,-3,-3,-2,-3,-1,-17,-1
16:29:55.047520,-6,1,-4,-2,-3,4,13,-7
16:29:55.047520,3,3,1,3,0,1,4,14
16:29:55.062509,-2,-1,0,0,0,3,3,-2
16:29:55.062509,-6,-5,-7,-5,-7,-4,26,-9
16:29:55.077503,-5,0,-2,-1,-3,-6,-11,-6
16:29:55.084496,-2,-3,-2,-3,-5,-1,0,0
16:29:55.099487,-5,-2,-3,-3,-6,-9,-4,-7
16:29:55.107481,0,-1,0,-5,1,-4,-5,-4
16:29:55.122471,0,0,-1,-3,-2,0,1,1
16:29:55.122471,3,1,0,-2,3,13,6,11
16:29:55.137466,-3,1,4,1,-5,4,-6,-2
16:29:55.152453,-6,-6,-3,-2,-1,-4,-1,-6
16:29:55.159450,1,0,-1,0,-1,-4,2,-3
16:29:55.174441,-2,-4,-4,-5,-4,-4,11,7
16:29:55.182436,-5,-1,-4,-2,0,-2,-5,-6
16:29:55.182436,9,1,0,0,-1,2,-5,3
16:29:55.197429,1,0,0,-1,-4,2,-4,0
16:29:55.204422,0,0,-1,-1,-2,-13,-35,-1
16:29:55.219412,-3,-1,1,-4,-3,1,4,3
16:29:55.227410,2,-4,-3,-4,-1,2,-5,1
16:29:55.242401,-2,0,-1,0,3,0,-1,1
16:29:55.242401,1,-3,-1,-1,-6,-3,3,0
16:29:55.257392,-2,-2,-1,-1,1,2,3,-4
16:29:55.265387,1,-3,-2,-4,-1,-2,-4,-1
16:29:55.280375,-3,2,-1,-2,1,0,-1,-4
16:29:55.302362,-2,-3,-1,2,0,3,18,-4
16:29:55.302362,5,4,0,1,-3,-7,-7,4
16:29:55.303363,0,0,-1,-1,-1,-1,7,-5
16:29:55.317355,2,1,0,1,6,2,3,3
16:29:55.324351,6,3,2,-1,-2,-3,-9,15
16:29:55.340341,-4,0,-2,-3,-5,-5,-14,-4
16:29:55.347336,2,1,-2,-2,-4,4,11,11
16:29:55.362327,4,3,3,3,5,3,4,17
16:29:55.362327,-1,2,-4,-1,-4,-13,-11,-8
16:29:55.377318,1,-1,1,1,0,3,2,2
16:29:55.385310,-5,-1,0,-4,-4,-7,-18,-5
16:29:55.400304,-3,-1,-2,-1,-3,-8,0,-4
16:29:55.407300,6,3,1,-1,0,7,12,16
16:29:55.422291,-2,-1,-4,1,1,7,15,-4
16:29:55.423287,-6,-3,0,-3,1,-6,-15,-10
16:29:55.437278,8,4,-2,1,6,8,16,8
16:29:55.444273,0,-4,-2,0,0,0,0,-4
16:29:55.460267,-7,-4,-4,-4,-3,-1,-11,-9
16:29:55.467263,-5,-3,-1,-3,-5,1,1,-4
16:29:55.482254,-5,-1,-1,0,-1,-3,0,-8
16:29:55.483250,-3,-4,-3,-3,-1,-4,3,0
16:29:55.497241,2,-2,-4,0,-4,-10,-32,-9
16:29:55.505239,-4,-4,-3,0,-1,6,3,0
16:29:55.520227,-1,-3,-3,0,0,2,-3,-3
16:29:55.535218,-3,-5,-4,0,1,4,-11,-3
16:29:55.542217,-1,1,-2,-3,-1,0,4,-3
16:29:55.543216,-2,0,-3,-1,0,0,3,-2
16:29:55.557207,1,2,4,1,1,0,-2,-2
16:29:55.565203,2,-1,0,0,-1,-6,-3,-1
16:29:55.580190,2,-1,0,-2,3,-8,-13,-6
16:29:55.602179,-3,0,-3,-4,-5,-1,4,-3
16:29:55.603178,2,-2,1,1,0,1,5,-7
16:29:55.603178,-5,0,0,0,0,1,1,1
16:29:55.617170,0,1,0,-3,-3,-8,-17,9
16:29:55.625168,-1,0,0,2,3,3,1,-1
16:29:55.640154,-6,-3,-2,0,1,0,0,-6
16:29:55.647152,-3,-3,-1,-1,-4,-10,2,3
16:29:55.662143,-1,-2,0,-4,-1,-3,-2,1
