timestamp,emg1,emg2,emg3,emg4,emg5,emg6,emg7,emg8
15:33:11.490700,3,-4,0,-1,-5,-4,-2,-5
15:33:11.521679,-2,-1,-4,-3,-4,-2,-4,-6
15:33:11.522679,0,-3,1,-1,-1,0,4,1
15:33:11.524678,-2,-5,1,-5,-3,0,-2,-7
15:33:11.531673,-2,-2,2,-2,2,-1,-3,2
15:33:11.547665,0,-4,-4,-6,3,-2,-2,1
15:33:11.547665,-3,0,0,-1,5,-4,-3,1
15:33:11.568649,1,0,-1,3,-1,-1,-1,-3
15:33:11.569649,-1,2,-3,-2,-2,0,0,0
15:33:11.598638,-1,-2,-1,-1,-1,-7,-25,-7
15:33:11.599631,1,-1,-1,-6,-5,-2,6,1
15:33:11.613630,0,0,-2,1,-2,-1,-2,-1
15:33:11.614622,-1,2,1,3,5,-2,-1,-7
15:33:11.629611,-1,-1,-1,-2,-2,-1,2,-2
15:33:11.629611,1,1,1,3,3,0,1,-1
15:33:11.651598,3,2,0,-1,3,3,1,0
15:33:11.651598,-2,0,3,-2,0,-4,0,2
15:33:11.666621,0,-2,-3,0,0,2,-3,-2
15:33:11.666621,1,-1,-4,0,-4,1,-2,-1
15:33:11.689574,-2,-5,-4,-2,-2,-2,0,-4
15:33:11.689574,-3,-1,1,1,3,3,1,-2
15:33:11.711563,-3,1,0,1,4,1,1,-1
15:33:11.712561,3,1,1,1,-1,-5,-8,-1
15:33:11.726554,-1,-2,-2,-2,0,5,1,-2
15:33:11.727553,0,-4,-3,-1,-3,-1,-1,-1
15:33:11.749537,-1,-2,-3,2,-1,-1,8,14
15:33:11.749537,0,1,2,3,1,1,0,2
15:33:11.771527,2,-4,-1,-4,-1,-2,5,0
15:33:11.772526,-2,1,2,-1,-2,2,-6,-3
15:33:11.786517,-1,-1,-1,-2,-4,2,3,-1
15:33:11.787517,-2,-2,1,-1,0,0,3,0
15:33:11.809502,1,-1,0,2,-1,0,-4,1
15:33:11.816498,-1,0,1,-2,-3,-4,-3,-1
15:33:11.831489,-4,0,-3,-1,-4,-3,-3,-1
15:33:11.832487,1,-2,0,-2,0,0,1,-5
15:33:11.846477,1,-1,-2,5,3,-3,0,1
15:33:11.847478,-2,-5,-4,-6,-4,-2,-2,-5
15:33:11.869462,2,1,0,-2,1,0,19,4
15:33:11.869462,-1,-2,-2,-3,-3,-2,-5,-2
15:33:11.891452,0,1,1,-1,-2,4,0,-1
15:33:11.892451,-1,-2,-3,-2,-1,-5,-4,-1
15:33:11.906442,-5,-3,-3,-5,0,-6,-1,-4
15:33:11.921433,0,1,0,0,-3,-2,-3,-2
15:33:11.928428,-4,1,-2,-3,-1,-3,-4,-5
15:33:11.929426,0,-3,-5,-6,-3,-3,-10,-4
15:33:11.951415,-5,-3,-3,-7,-3,-5,-3,-4
15:33:11.952414,0,0,-3,0,-2,2,-9,-5
15:33:11.966405,1,2,-3,-2,-1,8,1,3
15:33:11.974398,-3,0,1,-2,-1,-1,-1,-3
15:33:11.989388,0,2,-3,0,-2,-1,-1,-4
15:33:11.989388,-1,-2,-1,-2,-2,-5,1,-1
15:33:12.011378,-2,1,3,2,0,0,0,-1
15:33:12.012374,-2,-3,-5,-1,-3,-2,-2,-3
15:33:12.026368,-2,-1,0,4,1,1,-5,-1
15:33:12.034364,-2,-4,0,-2,-3,4,-2,-4
15:33:12.049352,-1,-1,-1,2,-2,-2,0,-3
15:33:12.049352,4,2,3,0,-4,0,-2,0
15:33:12.071340,-3,0,-1,-3,-4,-4,-17,-6
15:33:12.072338,2,-1,0,3,2,-1,5,6
15:33:12.086330,1,1,0,-1,-3,-3,1,-1
15:33:12.094326,-3,-2,-2,-2,-5,0,1,1
15:33:12.109314,1,-2,1,-1,-5,-10,-2,5
15:33:12.109314,-2,0,2,4,7,8,6,5
15:33:12.131300,-4,-4,-7,-2,-2,0,-10,-9
15:33:12.132302,-3,-2,0,0,-3,-4,-3,-2
15:33:12.147291,-1,-2,-3,1,-1,0,1,0
15:33:12.154289,-1,1,4,2,-3,-2,-4,-3
15:33:12.169277,1,-2,-6,-4,0,-1,5,-2
15:33:12.169277,1,0,0,0,-2,0,-2,0
15:33:12.191266,6,2,1,1,4,6,10,12
15:33:12.192265,-3,-4,-6,-2,-7,-5,-7,-5
15:33:12.206256,-3,1,-1,-3,-4,-3,-2,-2
15:33:12.214249,4,-3,-1,-2,-1,2,3,5
15:33:12.236238,-4,0,-1,-2,-1,-3,-6,-1
15:33:12.237234,-3,-2,0,1,0,1,-2,-1
15:33:12.251229,0,-4,-2,-1,3,2,-8,4
15:33:12.252225,-3,-1,1,-1,0,-4,0,-5
15:33:12.267218,2,1,-3,0,-3,-7,-4,0
15:33:12.274215,-1,-2,-4,-6,-10,-6,-2,-2
15:33:12.289205,-2,0,-2,0,1,-3,-5,-7
15:33:12.289205,-3,-4,-4,-3,-3,-1,-1,-3
15:33:12.319185,0,-1,2,2,0,3,-1,0
15:33:12.320183,-1,-1,2,-1,0,-2,5,2
15:33:12.327179,0,2,1,0,-3,-2,-2,-4
15:33:12.342173,-3,-2,-1,-1,2,-3,0,-1
15:33:12.349165,-5,-2,-1,-2,-6,-3,-3,-2
15:33:12.350165,1,-1,1,1,4,7,-8,5
15:33:12.371151,-3,-2,1,1,2,4,-1,-3
15:33:12.372154,-1,0,-4,-3,-4,-1,-3,0
15:33:12.394140,-1,-3,-1,2,1,-2,-3,-2
15:33:12.395140,0,2,-1,1,4,5,-3,-3
15:33:12.409131,0,1,-4,-2,-4,-3,-8,-6
15:33:12.410131,-2,-2,-1,0,-4,0,-7,-4
15:33:12.431116,-1,0,2,5,5,2,1,0
15:33:12.432115,-1,-3,-1,-1,-1,-2,0,-1
15:33:12.447105,2,-1,-2,-1,1,6,6,-1
15:33:12.454103,-1,2,-1,-2,-2,-5,-1,-1
15:33:12.469093,-3,-4,-4,-3,-1,5,-3,-7
15:33:12.470093,-4,-4,-4,1,-2,-5,-7,-6
15:33:12.492077,0,2,-1,-1,-3,0,-3,-6
15:33:12.492077,0,-3,-2,-1,2,-1,1,5
15:33:12.514063,-2,-1,-7,1,-3,0,-3,3
15:33:12.515064,1,0,-3,-3,0,-1,-1,-3
15:33:12.530054,-2,0,-2,3,-3,0,0,-1
15:33:12.530054,0,-3,-1,1,-2,-2,-2,-2
15:33:12.552040,-2,0,0,-3,-7,-6,-7,2
15:33:12.552040,-2,0,-1,1,-1,-1,-1,1
15:33:12.574028,-2,3,-1,2,3,-2,10,-3
15:33:12.575027,2,0,1,-1,0,1,-3,2
15:33:12.589020,0,-3,-4,-1,-2,-5,1,-1
15:33:12.590016,-4,-2,-3,-1,-2,-2,1,2
15:33:12.612003,-4,-1,0,2,5,-3,4,2
15:33:12.612003,0,-2,-1,-3,-5,-1,-4,-1
15:33:12.633990,-5,2,-2,-4,-2,-3,-4,-3
15:33:12.634989,-1,-1,-1,0,0,1,1,-2
15:33:12.656975,-2,-2,-1,1,-3,-4,-6,-2
15:33:12.656975,-3,0,-2,-1,1,2,-10,-3
15:33:12.671965,0,-1,1,-4,-1,-6,-10,-3
15:33:12.671965,0,3,0,-3,-2,-3,0,-2
15:33:12.693954,0,0,-2,-3,0,1,4,3
15:33:12.694953,-2,-4,-1,-3,1,4,-5,-3
15:33:12.708945,1,3,1,5,3,2,2,1
15:33:12.709944,-3,-1,-1,-3,-1,-3,-2,2
15:33:12.731928,-1,-3,-1,-2,-1,1,-2,-1
15:33:12.731928,-1,-3,-2,-2,-7,-7,-2,-4
15:33:12.753917,-2,-1,-3,-4,0,-6,0,-4
15:33:12.754914,3,1,-1,-3,2,-1,-3,4
15:33:12.768907,0,0,0,0,-2,-1,10,-3
15:33:12.769905,1,-1,-4,-3,-5,-5,-15,-3
15:33:12.791890,1,0,0,-1,-2,-2,10,6
15:33:12.791890,-1,-4,-1,-2,-5,-3,-6,-7
15:33:12.813878,-2,-3,1,-1,-3,-6,-4,-1
15:33:12.814876,-2,2,-3,0,3,-4,-2,-2
15:33:12.829868,-1,0,-1,-2,-2,-1,0,-3
15:33:12.829868,0,2,-2,2,1,2,2,0
15:33:12.858852,0,-3,-4,-2,1,7,-1,-1
15:33:12.859851,1,0,-1,1,-3,2,0,2
15:33:12.873842,-1,0,-2,0,0,-1,7,3
15:33:12.874840,-4,-3,-2,-2,-4,-5,-4,-1
15:33:12.889831,9,4,2,-1,3,6,16,21
15:33:12.896825,-5,-3,-3,-3,-7,-4,-4,-3
15:33:12.911816,-5,-1,-1,-5,-3,-4,-3,-6
15:33:12.911816,-1,-1,-2,0,-2,-1,0,-3
15:33:12.934804,-3,-2,3,2,-4,-2,0,-2
15:33:12.934804,-5,0,1,-3,-3,5,0,-6
15:33:12.956791,1,0,-1,2,4,-5,-9,-2
15:33:12.956791,3,-2,-4,-3,-4,-7,-21,2
15:33:12.971782,-2,-2,-2,-1,-4,-1,2,-6
15:33:12.972781,-4,-1,1,-1,-1,-3,-1,-2
15:33:12.993768,6,5,0,8,2,1,6,15
15:33:12.994767,0,-1,0,-13,-11,-9,5,-3
15:33:13.016754,2,1,2,3,11,3,-1,-1
15:33:13.016754,-4,-2,-3,2,2,-7,1,0
15:33:13.031744,-2,2,0,-6,-16,-1,7,-4
15:33:13.031744,-3,0,4,8,17,-3,-18,2
15:33:13.053731,-2,-1,-1,4,-42,-4,3,4
15:33:13.054730,-1,2,-1,-10,6,-2,2,-3
15:33:13.076717,0,-1,-1,8,26,2,-3,-1
15:33:13.076717,-1,1,1,-16,-12,3,-2,-3
15:33:13.091707,-2,-6,-3,-5,-6,-6,-2,0
15:33:13.091707,6,1,4,9,7,5,0,0
15:33:13.113691,-6,-3,-1,11,7,-6,-12,-12
15:33:13.114692,-5,-2,-7,-19,8,-7,-3,-4
15:33:13.136680,0,0,0,3,9,1,0,0
15:33:13.136680,1,-1,1,2,-29,-4,-8,0
15:33:13.151670,-6,-7,-2,15,22,0,-7,-5
15:33:13.151670,5,2,3,-27,-11,7,7,7
15:33:13.174656,-5,-2,-2,1,-2,-5,-6,-4
15:33:13.174656,-3,-1,-3,-4,-1,0,-3,-4
15:33:13.196641,-2,-1,2,19,16,5,4,3
15:33:13.196641,-10,-4,-5,-1,-4,-3,-1,-7
15:33:13.211633,-1,1,-1,-16,-30,-12,-1,-1
15:33:13.212632,1,2,-1,11,2,2,-1,-4
15:33:13.234617,-2,2,1,-14,-53,-6,5,-1
15:33:13.234617,2,1,3,10,24,8,-7,3
15:33:13.264599,-6,-4,-4,-3,-8,-8,-4,-11
15:33:13.264599,13,9,9,6,9,10,10,18
15:33:13.271596,-2,-2,-1,0,-14,-10,-10,-5
15:33:13.272592,4,-1,1,19,9,7,10,11
15:33:13.294582,0,0,4,16,6,-3,0,-1
15:33:13.294582,-3,-1,-1,19,24,3,-4,-9
15:33:13.316567,0,-1,-4,-26,-8,1,-3,3
15:33:13.317567,0,-4,1,4,18,3,-2,-1
15:33:13.331558,3,5,9,-5,10,-1,2,3
15:33:13.332558,-2,-2,-3,-6,7,-4,0,0
15:33:13.354544,3,-3,-4,13,15,0,-1,-4
15:33:13.354544,-7,-2,-1,-4,-3,1,-3,-6
15:33:13.376531,-2,0,-2,-3,-4,0,-1,-4
15:33:13.377531,0,4,10,2,14,2,2,2
15:33:13.391521,0,0,-9,-18,-54,2,2,3
15:33:13.392521,-4,-2,-10,-5,0,-6,-4,-1
15:33:13.414506,-1,-1,-10,26,26,2,-1,-5
15:33:13.414506,7,12,43,-29,-7,3,4,5
15:33:13.436493,-5,-5,-6,103,57,-6,-7,-4
15:33:13.437490,-3,-7,-1,75,7,-3,-2,-4
15:33:13.459479,-2,-20,-81,-128,-128,-42,-2,4
15:33:13.460479,-14,-4,10,-32,-83,1,-5,-15
15:33:13.474467,23,27,34,-41,-120,7,12,17
15:33:13.474467,-33,-46,-59,-90,-97,-46,-24,-24
15:33:13.496454,11,8,-110,-128,-117,9,13,11
15:33:13.497455,-30,-28,26,59,120,-53,-27,-28
15:33:13.511447,-1,6,71,127,127,89,15,2
15:33:13.512444,19,5,-37,-128,-128,-32,7,20
15:33:13.541428,23,64,105,127,127,49,25,22
15:33:13.542425,15,11,22,127,127,49,-11,8
15:33:13.556419,-87,-128,104,-84,127,66,-34,-49
15:33:13.557416,17,-26,8,-7,-72,-12,18,7
15:33:13.571410,30,78,-16,-128,-128,-93,-1,17
15:33:13.572409,-37,-21,53,127,-128,34,-17,-38
15:33:13.594394,47,22,-128,127,-128,-111,16,46
15:33:13.594394,-34,4,109,-128,-128,60,-14,-36
15:33:13.609386,-39,-97,-115,56,127,-35,-29,-26
15:33:13.609386,4,-14,1,-128,99,4,16,15
15:33:13.624377,30,82,42,-128,-32,21,15,12
15:33:13.631369,-17,-34,-22,-128,-64,2,-24,-18
15:33:13.654358,13,7,-30,-97,-53,-34,-12,4
15:33:13.654358,-34,-16,43,127,127,127,23,-16
15:33:13.676345,-38,5,-22,-103,-128,-18,3,-17
15:33:13.677344,23,45,-3,-125,-128,-97,0,11
15:33:13.691336,-5,-53,-38,63,-110,-10,0,2
15:33:13.692335,-35,-82,-117,-64,-7,-27,-22,-22
15:33:13.714320,0,52,84,127,127,127,4,-6
15:33:13.714320,-3,-25,-36,-95,-128,-50,-15,-2
15:33:13.744303,33,93,16,-128,-128,-128,-15,8
15:33:13.744303,-87,-128,-100,46,-128,78,6,-24
15:33:13.751298,-26,-90,-58,127,127,27,-10,-7
15:33:13.752295,25,-81,-50,-58,127,127,23,32
15:33:13.774284,127,127,127,98,-128,-128,-1,33
15:33:13.774284,17,20,-38,-128,-76,106,24,17
15:33:13.796267,-40,-83,-10,127,84,35,4,-9
15:33:13.797267,63,127,89,126,-128,-94,7,21
15:33:13.811261,-49,-128,-17,127,127,127,6,-1
15:33:13.812258,25,40,33,-85,64,23,15,10
15:33:13.834246,-9,-30,-22,-51,-128,-15,0,-7
15:33:13.835246,-53,-113,-74,-106,66,-26,-16,-21
15:33:13.856234,9,25,70,127,-71,1,1,0
15:33:13.857230,7,9,54,127,127,127,14,7
15:33:13.871224,-33,-89,-89,-128,-124,-61,-9,-11
15:33:13.872223,20,63,27,-104,-80,-2,7,6
15:33:13.894210,-22,-46,-29,38,-122,-39,5,-1
15:33:13.895208,-2,2,10,5,-76,-7,-3,-5
15:33:13.916195,-14,-46,-58,-22,-76,-30,-1,-1
15:33:13.917196,-28,-46,-39,-47,127,3,-14,-13
15:33:13.931186,11,13,3,-91,-128,-128,-3,3
15:33:13.932186,-3,-4,26,127,18,16,-2,-8
15:33:13.954173,12,-25,-20,127,127,22,18,20
15:33:13.955172,29,40,4,-70,127,9,8,14
15:33:13.976158,6,-9,-10,-35,127,53,5,7
15:33:13.977159,10,16,11,-49,-38,15,6,6
15:33:13.991149,-28,-46,-8,127,71,49,-1,-11
15:33:13.992149,23,28,42,108,69,47,14,12
15:33:14.014135,3,8,19,127,97,-1,1,-2
15:33:14.014135,-6,-21,-1,127,-128,-14,-2,1
15:33:14.036122,-5,-10,-36,-47,-66,-27,1,0
15:33:14.037118,18,26,20,23,127,38,3,9
15:33:14.051113,-9,-29,-33,-37,0,-7,0,-5
15:33:14.052112,3,23,-22,5,66,3,2,-1
15:33:14.074099,-13,-5,10,86,127,-11,-10,-11
15:33:14.075098,-23,-41,-28,127,-64,-45,-11,-12
15:33:14.096082,-3,-8,50,127,127,11,1,-4
15:33:14.097081,17,37,18,-59,-89,16,6,3
15:33:14.119071,5,3,-6,-7,-4,71,3,3
15:33:14.120067,-8,-38,-11,108,113,8,0,1
15:33:14.134061,-14,-23,4,127,127,-17,-11,-5
15:33:14.142056,0,0,-48,-128,-96,-43,-5,-1
15:33:14.157044,15,53,29,-80,-73,6,2,-1
15:33:14.157044,-1,14,-16,-128,-128,27,-3,-7
15:33:14.179030,12,15,4,-17,-43,33,10,12
15:33:14.180031,-23,-37,-14,-1,26,-20,-13,-15
15:33:14.194024,14,15,-1,-29,49,-20,5,8
15:33:14.195021,-29,-50,-57,28,78,-18,-9,-12
15:33:14.217009,-14,-41,-44,-85,-102,-113,-6,-4
15:33:14.218009,19,16,22,127,17,-39,11,14
15:33:14.232000,-15,-45,7,122,35,3,2,1
15:33:14.239993,13,25,31,43,-128,-60,-1,8
15:33:14.261980,-8,-9,7,18,4,15,-9,-7
15:33:14.261980,6,25,24,-128,-59,0,1,-2
15:33:14.276971,-7,-4,8,25,-29,-39,-6,-4
15:33:14.276971,10,18,36,83,61,4,7,3
15:33:14.299959,6,15,-1,-72,-30,-17,5,4
15:33:14.299959,7,1,32,25,12,-30,3,7
15:33:14.313948,-14,-20,-8,-43,-21,33,-7,-12
15:33:14.314947,11,10,14,83,111,33,-1,4
15:33:14.336935,4,3,3,-12,-7,6,3,2
15:33:14.336935,10,42,56,127,127,93,10,0
15:33:14.358921,6,15,19,-108,-128,-18,3,0
15:33:14.359918,-19,-19,-8,18,-59,-26,-14,-10
15:33:14.374909,-5,-12,26,127,127,72,5,-2
15:33:14.374909,-14,-27,-25,38,127,-12,-12,-6
15:33:14.396896,-12,-22,-59,-128,-30,5,-6,-7
15:33:14.396896,11,30,8,-128,-128,-65,-1,2
15:33:14.419883,-8,-15,-33,-104,-68,-9,-6,-4
15:33:14.419883,12,12,2,28,-39,-91,-4,7
15:33:14.433875,-37,-59,-14,31,31,56,-11,-17
15:33:14.434874,9,16,-16,-128,-25,25,0,-2
15:33:14.456858,-1,-6,-9,-33,-127,19,0,1
15:33:14.456858,1,6,21,127,-1,-6,-5,-6
15:33:14.478847,5,5,-9,-94,68,23,1,2
15:33:14.479844,-24,-36,-17,65,127,59,-7,-6
15:33:14.493836,3,4,-3,-47,-128,-57,-1,-4
15:33:14.494837,2,4,5,10,-63,-3,-4,2
15:33:14.516821,-1,-1,8,105,127,54,1,0
15:33:14.516821,2,3,5,6,-23,4,-2,-5
15:33:14.538809,-4,-1,3,22,94,81,4,5
15:33:14.539809,-2,-3,-4,-15,-66,-25,3,-4
15:33:14.553802,-23,-4,-2,-10,-46,-21,-2,-11
15:33:14.554798,-21,-10,-11,-8,-4,18,-25,18
15:33:14.576784,-4,7,4,0,-8,-8,-8,-15
15:33:14.576784,-1,-16,-2,1,12,9,30,19
15:33:14.598772,13,10,-4,-7,-21,-28,-128,19
15:33:14.599771,-41,-17,11,21,29,17,46,-27
15:33:14.613762,46,-15,-32,-35,-32,9,-128,48
15:33:14.614761,-43,56,26,19,-4,-84,127,-102
15:33:14.636746,-15,-83,-21,-1,34,48,-128,103
15:33:14.636746,17,4,-10,2,3,-3,47,54
15:33:14.658735,-18,66,60,63,68,106,41,96
15:33:14.659732,-128,-99,-3,9,42,117,-128,90
15:33:14.673726,-28,-11,-47,-61,-90,-114,127,-89
15:33:14.674724,-128,0,33,53,47,-65,127,-128
15:33:14.696711,121,8,-24,-128,-128,-17,127,127
15:33:14.696711,-46,-1,23,127,96,38,48,-89
15:33:14.719698,-41,16,-19,-95,-128,-52,-15,-34
15:33:14.719698,-38,-15,21,127,127,10,-93,-18
15:33:14.734688,6,-81,-8,57,2,117,-27,0
15:33:14.734688,127,33,-49,-128,-128,17,-30,66
15:33:14.756675,-81,-12,29,88,127,-43,-8,-36
15:33:14.756675,-128,23,15,127,-128,-69,-128,-54
15:33:14.771666,-3,13,-47,-77,-128,-85,-4,51
15:33:14.771666,-41,34,-22,-79,-128,-33,92,-48
15:33:14.786656,-128,0,16,87,127,22,18,-128
15:33:14.794648,18,32,-1,63,127,-20,29,32
15:33:14.816637,-42,5,-15,44,-94,8,-12,-96
15:33:14.817635,114,9,6,53,25,5,127,127
15:33:14.839623,-32,3,8,24,64,41,102,-6
15:33:14.839623,21,7,11,-38,17,76,127,31
15:33:14.854615,12,6,22,127,127,98,14,2
15:33:14.861610,-10,-8,-1,-38,127,-10,79,-32
15:33:14.876600,29,-5,31,95,32,33,-59,-18
15:33:14.877609,6,6,-2,127,-102,25,38,22
15:33:14.899584,36,-22,-4,92,-27,3,16,32
15:33:14.899584,73,30,1,28,127,43,-25,45
15:33:14.913577,-50,-6,-6,-56,-10,-59,-56,-45
15:33:14.914576,-20,-21,-70,-106,-128,-15,-24,-35
15:33:14.936563,-4,-7,-12,-112,-128,14,-3,-14
15:33:14.937563,12,18,90,107,22,8,8,4
15:33:14.959547,-8,-4,-11,46,59,29,-11,-50
15:33:14.959547,-11,-8,-4,-21,-74,-33,-108,3
15:33:14.974537,67,-5,12,41,127,39,45,80
15:33:14.974537,-14,6,-1,-115,-110,-22,-13,-14
15:33:14.996525,-10,-2,-9,-44,-119,-15,-34,-14
15:33:14.997523,-28,-18,-4,70,14,-23,-5,-5
15:33:15.019512,21,13,-8,-3,-102,-21,-66,-21
15:33:15.019512,-8,1,-7,-59,-8,0,6,-1
15:33:15.034503,19,4,-17,-128,-13,7,54,40
15:33:15.041498,3,6,14,51,9,3,-109,7
15:33:15.056489,5,5,-18,-25,-128,-13,-6,42
15:33:15.057486,-15,-6,-6,13,-128,-9,-6,-22
15:33:15.079472,-31,-15,-14,-8,14,-23,12,-42
15:33:15.079472,-10,1,3,-128,-37,-4,19,5
15:33:15.094466,38,4,-5,17,26,5,-1,8
15:33:15.101461,-14,-3,0,-102,-21,13,8,-8
15:33:15.116451,9,3,-12,-3,-58,27,25,18
15:33:15.117451,-7,1,-5,7,92,3,2,-10
15:33:15.139436,2,-3,10,62,127,10,-2,-9
15:33:15.139436,9,2,-47,2,-99,-2,16,26
15:33:15.154429,-12,-7,1,-33,53,18,2,-6
15:33:15.161423,38,6,20,81,120,3,-2,-4
15:33:15.176414,-7,-8,-4,-32,-10,-3,-1,-7
15:33:15.177414,6,2,-5,4,-21,-45,6,44
15:33:15.206396,-2,-2,0,21,20,-1,-5,1
15:33:15.207397,-2,-2,-4,-61,-60,-16,-1,-5
15:33:15.214390,-16,1,-5,62,-108,-33,-14,-15
15:33:15.221384,-1,1,-6,10,-11,1,16,8
15:33:15.236377,-6,-5,1,1,-25,-8,-67,-20
15:33:15.237377,11,2,2,2,15,17,55,54
15:33:15.259360,-28,-16,-13,-12,-12,16,28,-18
15:33:15.259360,-8,-3,-1,1,-32,-4,3,-6
15:33:15.274354,-2,4,-1,-128,-111,6,13,5
15:33:15.289345,-25,-19,-1,122,88,-14,-15,-30
15:33:15.296337,0,-3,-11,-8,-66,1,-7,-1
15:33:15.297339,9,5,11,-5,-27,8,9,16
15:33:15.319325,13,2,-19,-128,2,23,15,16
15:33:15.319325,-10,0,4,42,97,9,-16,-19
15:33:15.334317,33,-10,-3,-63,0,-16,-4,9
15:33:15.341312,19,4,1,-4,19,1,-4,-5
15:33:15.356302,-10,-3,2,3,-31,4,0,-9
15:33:15.357303,3,1,2,-20,-38,2,4,18
15:33:15.379285,-11,-8,-12,13,-128,-24,-10,-12
15:33:15.379285,-6,-5,3,12,-44,-10,-19,-14
15:33:15.401272,2,-1,-5,-64,-66,1,-3,13
15:33:15.402274,-5,1,-2,-6,7,0,-2,-5
15:33:15.416264,-22,-1,2,4,0,7,1,-10
15:33:15.417265,-3,-1,-1,64,-70,0,18,0
15:33:15.439253,-4,-3,-5,-42,-5,-1,12,-3
15:33:15.439253,-1,-3,5,41,41,-7,0,-4
15:33:15.462235,5,2,0,38,68,5,3,15
15:33:15.462235,-7,-7,-12,17,27,-16,-14,-21
15:33:15.476229,1,-2,1,-5,3,-4,3,8
15:33:15.477226,6,0,0,-3,-5,-2,-9,-6
15:33:15.499216,1,3,-4,-21,23,5,5,10
15:33:15.499216,24,0,6,-13,92,3,-2,0
15:33:15.522201,13,7,4,2,-5,9,18,21
15:33:15.522201,-4,-6,2,127,35,9,-2,-2
15:33:15.536191,-4,3,3,48,30,3,11,-4
15:33:15.537191,-5,1,-1,-1,4,-2,-13,-7
15:33:15.559177,4,2,1,-11,-4,1,10,13
15:33:15.559177,1,1,1,5,4,9,5,3
15:33:15.581163,-5,-5,-1,24,9,0,4,-1
15:33:15.582160,-2,-2,-3,7,6,1,1,-1
15:33:15.597153,-1,2,2,12,-4,3,2,-2
15:33:15.604149,-3,-1,-2,-14,55,0,6,-1
15:33:15.619140,-4,0,-1,-42,-7,2,3,-15
15:33:15.620136,-3,-1,-3,1,-5,-1,-4,-6
15:33:15.642126,-1,-2,2,7,-3,0,2,1
15:33:15.642126,-6,-3,-2,-1,6,-3,-6,-9
15:33:15.657116,-2,2,0,-1,2,0,12,3
15:33:15.657116,0,1,-1,-28,-5,0,3,-3
15:33:15.679103,4,0,4,9,-35,-1,1,0
15:33:15.680099,-3,-5,-5,-5,-31,-7,-1,-2
15:33:15.702086,0,5,1,3,-58,-15,-4,1
15:33:15.702086,-6,-4,3,-5,-14,-5,-9,-5
15:33:15.717079,0,2,-3,2,-2,-2,-8,-8
15:33:15.724075,-2,-2,4,-6,-4,-1,4,0
15:33:15.739066,1,-2,-3,-2,-7,-4,4,3
15:33:15.740066,-2,-2,-1,-2,2,-2,-1,-3
15:33:15.762048,-5,-5,-5,-4,-3,2,-4,-8
15:33:15.762048,-5,-4,-6,-60,-14,-5,-2,-2
15:33:15.777042,9,4,-5,32,-74,0,3,7
15:33:15.784037,-4,-2,3,19,57,4,-5,-7
15:33:15.799028,-2,-1,-3,1,41,4,-2,-5
15:33:15.800025,-1,1,1,-7,8,4,1,2
15:33:15.822014,3,-1,-4,-4,-3,5,18,8
15:33:15.822014,-7,-1,-2,1,0,-6,-12,-1
15:33:15.837004,1,0,-2,1,-5,-2,10,-7
15:33:15.844000,-3,-4,-5,-2,6,6,-7,0
15:33:15.858991,-4,-4,-1,-1,0,2,1,-3
15:33:15.859991,3,4,2,-23,2,4,0,1
15:33:15.881975,-4,-3,4,14,68,-3,-4,-4
15:33:15.881975,-2,-1,-3,-3,22,-7,-4,-5
15:33:15.896966,-4,-3,-3,9,16,-3,-10,-8
15:33:15.911959,0,-2,0,-1,5,5,19,2
15:33:15.926946,1,-4,-1,-1,-2,0,1,13
15:33:15.926946,4,-1,2,-3,-4,3,5,-1
15:33:15.941937,-4,-1,-2,-5,-4,-1,-6,-2
15:33:15.941937,2,-3,-4,-4,-4,1,-4,-1
15:33:15.956931,0,-6,-5,-2,-5,-1,0,-1
15:33:15.963925,-5,0,-1,1,-3,0,-2,-4
15:33:15.978917,-5,-5,-3,-2,-4,-4,-5,-3
15:33:15.979915,-1,-3,-2,5,5,-3,-10,-7
15:33:16.008898,-1,-1,0,12,-31,-5,-4,-3
15:33:16.009898,-6,-2,-2,0,9,3,-6,-8
15:33:16.016894,7,4,1,0,3,1,-7,8
15:33:16.023889,-1,2,1,2,-1,-9,20,7
15:33:16.038880,2,-4,-2,0,-3,1,-13,1
15:33:16.039877,-5,-5,0,-1,-2,-4,-9,-16
15:33:16.068861,1,-2,-3,-1,-4,-1,-2,1
15:33:16.069860,-5,-1,-2,-4,2,-1,-6,-8
15:33:16.076856,-3,-4,-3,0,6,-1,-2,-4
15:33:16.083851,-2,1,-5,-4,2,-2,0,-2
15:33:16.098842,0,0,-1,-3,-1,-2,-6,-5
15:33:16.099840,-3,-1,-1,-6,3,0,-3,-1
15:33:16.121828,10,3,2,-10,-25,-10,2,5
15:33:16.121828,-2,-2,-2,17,5,-7,-13,-5
15:33:16.136819,-3,0,0,3,3,1,1,0
15:33:16.143815,-3,-1,-4,-3,-5,3,17,8
15:33:16.158805,-1,-1,-3,-7,-5,1,4,1
15:33:16.159805,-5,-6,-6,-8,-7,3,-3,-9
15:33:16.181790,-2,-1,-3,-3,-1,4,-1,-5
15:33:16.181790,-1,-1,-2,0,-3,-2,-2,-2
15:33:16.204777,1,1,1,4,-2,1,1,2
15:33:16.204777,1,-2,0,-1,-6,-9,1,-1
15:33:16.218767,3,-1,2,2,-6,5,5,5
15:33:16.219767,-5,-5,-3,4,4,4,-3,-1
15:33:16.241754,-1,1,-1,2,-3,0,-2,0
15:33:16.242753,-2,0,1,-2,-3,-3,0,-2
15:33:16.256745,-1,-2,-2,-3,0,1,1,-6
15:33:16.263738,0,-5,-5,-2,-3,3,13,-3
15:33:16.278731,3,0,-1,4,3,5,2,1
15:33:16.279730,3,3,4,7,-3,-3,-1,-3
15:33:16.301716,2,2,-2,1,3,-3,1,0
15:33:16.302717,-1,0,2,26,2,0,-1,1
15:33:16.323701,-3,0,-1,-1,3,0,-6,-3
15:33:16.324702,-2,0,-2,-7,-6,0,0,-5
15:33:16.339697,-3,1,0,-4,-3,-5,-11,-4
15:33:16.339697,0,-2,0,-2,-2,0,-1,-2
15:33:16.361679,-4,0,0,3,-3,-1,8,-11
15:33:16.361679,2,3,-2,-3,-12,-10,-2,0
15:33:16.384663,-6,-3,-1,-3,-4,-6,-3,-3
15:33:16.384663,-2,-1,-4,-1,-6,-1,-5,-1
15:33:16.398654,4,0,0,1,0,-4,1,0
15:33:16.399655,-4,-4,-3,-2,-2,-1,-6,-3
15:33:16.421642,-1,-1,0,-1,1,-8,-17,0
15:33:16.436633,3,3,3,4,5,10,8,5
15:33:16.443626,0,0,1,-5,-3,5,6,3
15:33:16.444628,1,0,-1,-1,-2,-1,-1,-4
15:33:16.458622,-5,1,0,-4,-9,-7,-7,-7
15:33:16.459619,5,4,6,9,15,1,-7,9
15:33:16.481604,1,-1,2,-1,-1,-1,8,8
15:33:16.482604,-4,0,-1,-3,-3,-1,-2,-5
15:33:16.511586,2,0,0,0,4,2,2,-1
15:33:16.512585,-3,0,-3,-3,-1,-1,-4,-1
15:33:16.519582,2,2,-1,-1,-3,-6,0,0
15:33:16.519582,-2,0,-1,4,3,2,-3,-3
15:33:16.541568,-1,-1,-2,1,-3,-1,-3,-5
15:33:16.542564,-1,-3,-2,-3,-8,-6,-5,-1
15:33:16.563558,4,2,5,9,4,-4,-1,3
15:33:16.564553,-2,-1,1,-4,-9,-5,-1,-3
15:33:16.579541,-2,-2,-1,-1,-3,1,11,-5
15:33:16.579541,0,0,-3,-1,-10,-3,7,13
15:33:16.601531,-1,-1,-1,-1,1,2,-3,0
15:33:16.602531,0,-3,-3,-3,-3,4,-1,-3
15:33:16.624516,-1,0,1,0,-1,-2,-1,-1
15:33:16.624516,0,1,-2,1,-1,-6,-2,0
15:33:16.646500,3,2,1,0,5,-1,3,-4
15:33:16.647500,0,-3,-4,-3,-6,0,-3,-1
15:33:16.661493,2,1,0,1,3,2,-4,0
15:33:16.662493,5,1,1,3,9,3,3,6
15:33:16.684476,1,-3,-4,-2,-2,1,-1,-5
15:33:16.684476,-1,0,0,1,0,0,1,1
15:33:16.699469,-3,-1,-1,1,1,-4,-15,-3
15:33:16.706465,-1,-2,-2,-2,-4,-1,2,-2
15:33:16.721456,-3,1,-5,0,-3,0,-2,-2
15:33:16.722456,-2,-2,1,-1,-2,8,-5,-4
15:33:16.744439,-1,0,-1,1,1,-2,3,8
15:33:16.744439,2,2,2,2,4,-9,-14,1
15:33:16.759433,-5,-3,-2,-1,-4,3,1,-4
15:33:16.766428,6,2,2,4,3,-2,4,4
15:33:16.781419,0,-3,-5,-3,-4,2,-10,-1
15:33:16.782418,11,14,14,17,22,2,9,14
15:33:16.804402,-3,-2,-4,-2,-4,-7,-2,0
15:33:16.804402,-1,-2,0,0,-3,0,5,2
15:33:16.819396,0,-1,1,-4,3,-1,-10,0
15:33:16.826390,1,-1,0,3,4,3,8,7
15:33:16.841382,-5,-6,-6,-6,-10,-1,-7,-12
15:33:16.842381,-6,-5,-3,-4,-2,-1,-2,-5
15:33:16.864365,1,-2,-2,-2,-2,-5,-6,-3
15:33:16.864365,-3,-4,0,0,-9,-6,-4,-3
15:33:16.879365,-2,-3,-6,-1,-3,5,-5,-1
15:33:16.886351,-2,0,-3,-4,-2,2,0,-2
15:33:16.901344,-4,-4,-3,-4,-4,5,-8,-5
15:33:16.902344,3,0,1,0,0,3,8,10
15:33:16.924328,-5,-1,-1,1,-3,0,-10,-8
15:33:16.924328,3,5,-1,-4,-1,-5,-7,4
15:33:16.939321,-7,-1,-1,3,1,-5,-15,-20
15:33:16.946314,6,5,4,7,9,3,-2,7
15:33:16.961307,-5,-6,-6,-5,-4,-15,-29,-8
15:33:16.962304,-5,-2,-6,-3,-17,1,2,-8
15:33:16.984293,-6,-4,0,-1,6,-8,-6,-10
15:33:16.984293,-3,-1,-1,1,-6,0,3,-4
15:33:16.999283,2,-1,0,1,0,-4,3,10
15:33:17.007279,-4,-1,3,1,-6,-8,-8,-6
15:33:17.021270,2,-1,2,2,-5,-4,-3,-1
15:33:17.022267,1,1,0,0,-1,1,-1,-1
15:33:17.044253,-5,-1,-1,-3,-9,-11,-5,-4
15:33:17.044253,1,-4,-3,-4,0,-4,2,2
15:33:17.059247,-2,-2,0,1,-11,-5,-9,-1
15:33:17.066241,-6,-3,-1,-6,0,0,0,0
15:33:17.081233,-3,-3,-4,-1,-3,-1,7,-5
15:33:17.082232,-5,0,-1,1,-2,-5,1,-6
15:33:17.104218,1,0,-1,1,1,-5,0,3
15:33:17.105216,-8,-3,-2,-4,-2,0,-7,-5
15:33:17.119209,-5,0,-3,-1,-4,-8,-4,-5
15:33:17.126204,1,2,-2,-1,4,2,5,3
15:33:17.149190,-5,0,-1,-2,-6,-10,-7,-10
15:33:17.150195,1,2,0,0,5,-3,-17,1
15:33:17.164181,0,-3,2,3,6,-2,1,2
15:33:17.164181,-2,-2,1,0,3,-2,-7,-8
15:33:17.179173,2,-2,-4,-3,-4,0,5,6
15:33:17.186168,-3,-2,-2,-1,-2,-5,-5,-7
15:33:17.201157,0,2,2,5,7,4,0,-2
15:33:17.202156,-4,-5,-2,-4,-4,-8,-7,-7
15:33:17.231139,4,-2,-1,-4,-5,-8,-11,6
15:33:17.232138,0,-1,2,1,-5,-3,1,-3
15:33:17.239136,-4,-4,0,-3,-1,-1,-1,-4
15:33:17.246130,-5,-4,-5,-3,-4,-1,-4,-4
15:33:17.262119,5,1,1,0,3,-3,-1,15
15:33:17.262119,-1,-1,-1,1,-6,-2,-1,-5
15:33:17.284107,2,1,3,0,-3,2,0,-4
15:33:17.285107,-1,-1,-2,-1,2,-1,-7,-12
15:33:17.307091,0,-4,1,-3,0,8,-2,-2
15:33:17.307091,2,3,5,6,5,8,5,3
15:33:17.322081,-1,-2,-3,-4,-5,-3,2,4
15:33:17.322081,0,0,1,3,-1,1,-1,-3
15:33:17.344068,-4,-2,1,0,1,3,-14,-7
15:33:17.345069,1,0,-2,-1,-1,2,11,5
15:33:17.367053,-1,1,3,4,8,0,1,0
15:33:17.367053,5,1,3,0,4,1,-3,10
15:33:17.382044,0,3,1,1,2,-7,-4,-2
15:33:17.382044,1,0,1,1,0,-1,3,7
15:33:17.404033,5,4,4,3,7,-2,1,22
15:33:17.405033,-3,0,-4,-4,0,-3,-3,1
15:33:17.427016,-2,1,6,6,6,-1,2,-5
15:33:17.427016,-4,-3,-1,-3,0,-2,-3,-5
15:33:17.442008,1,-3,-2,-2,-1,-3,-2,-3
15:33:17.442008,-3,-4,-5,-5,-6,-2,-2,3
15:33:17.463995,3,3,2,5,6,6,-8,4
15:33:17.464995,-4,-4,-1,-5,-1,-4,17,9
15:33:17.486980,1,-2,2,2,-6,-3,-8,2
15:33:17.486980,-3,-1,-3,-2,-2,0,-2,-8
15:33:17.501971,1,-2,-3,-3,-2,-2,-1,3
15:33:17.501971,0,-2,-3,-6,-2,0,-2,0
15:33:17.523956,-4,-4,-6,-3,-3,-4,0,-4
15:33:17.524957,0,0,-1,-2,-4,-4,1,5
15:33:17.546942,-1,-4,-3,0,-2,0,-5,6
15:33:17.546942,-1,-5,-3,-3,-1,4,-10,0
15:33:17.561933,-3,-2,-2,-2,-3,7,9,-3
15:33:17.561933,1,-1,2,-2,0,2,6,9
15:33:17.583922,1,1,2,1,4,-2,-4,-2
15:33:17.584918,-7,-4,-4,-5,-5,-3,-7,-8
15:33:17.606909,1,-3,-3,-4,-3,-2,-1,-5
15:33:17.606909,-1,-1,-1,-4,0,-2,5,-3
15:33:17.621898,5,1,-6,-6,0,-3,5,11
15:33:17.628893,-4,-1,-5,1,-2,-2,-14,-7
15:33:17.643884,-3,-3,2,-5,-4,5,-2,-5
15:33:17.644882,-3,-6,-5,-6,-1,0,-3,-8
15:33:17.666870,-1,-1,0,2,-1,3,1,9
15:33:17.666870,1,-3,-2,-1,3,5,7,1
15:33:17.681862,1,-3,-3,-4,0,-5,-2,-8
15:33:17.696850,-2,5,-3,-1,2,-2,1,0
15:33:17.703847,-1,-1,-4,1,3,6,-3,-1
15:33:17.704844,2,0,0,4,-2,-1,-10,-6
15:33:17.726837,2,-2,-3,-6,-6,4,29,20
15:33:17.726837,-3,-3,-1,3,4,5,-2,-2
15:33:17.741823,4,-1,-1,-2,-2,8,7,11
15:33:17.748818,2,0,2,2,5,8,12,4
15:33:17.763809,-3,-1,0,0,0,0,1,-3
15:33:17.764806,0,-1,-1,-3,2,6,-2,1
15:33:17.786795,0,2,-1,1,5,-1,0,-1
15:33:17.786795,-3,0,1,0,-6,5,5,-1
15:33:17.801786,-5,-3,-3,-2,4,2,-2,-5
15:33:17.808782,-2,-1,0,-3,0,-6,-3,-4
15:33:17.823772,2,3,3,4,3,1,-2,4
15:33:17.824772,2,2,-1,-2,1,1,9,13
15:33:17.846758,-1,-2,-3,-4,-2,-1,1,-5
15:33:17.846758,0,-2,-6,-7,-12,-7,2,0
15:33:17.868744,-4,-1,-4,-4,-5,-3,-5,-8
15:33:17.869744,3,-3,1,2,4,5,1,-1
15:33:17.883735,-2,2,2,1,2,0,-4,-5
15:33:17.884735,5,2,7,7,8,3,5,-4
15:33:17.906721,-3,1,-1,-2,-4,-2,-5,1
15:33:17.906721,1,2,2,4,4,5,3,3
15:33:17.921709,0,0,0,-3,5,6,-9,-2
15:33:17.936703,-1,-2,-4,-6,-4,5,15,12
15:33:17.951694,1,-2,-3,-4,1,2,-3,0
15:33:17.952693,-1,0,0,1,4,-7,0,3
15:33:17.966683,-2,-4,-6,-8,-4,-1,1,-1
15:33:17.967682,-4,-1,1,0,-2,1,0,0
15:33:17.981674,1,2,1,4,1,0,-1,1
15:33:17.988667,-1,-1,0,-1,0,5,3,8
15:33:18.004659,1,3,0,-1,3,4,4,-3
15:33:18.004659,0,0,-2,-2,-3,2,0,-2
15:33:18.026647,2,-2,-1,-2,-2,1,4,6
15:33:18.027647,-1,0,-2,-2,-3,1,-2,-2
15:33:18.041638,7,4,9,6,10,3,-1,5
15:33:18.049630,-2,-2,0,-2,-1,-1,2,-3
15:33:18.063622,-1,-3,-2,0,-4,2,3,10
15:33:18.064622,-1,4,2,1,12,12,4,-3
15:33:18.086610,0,-2,-1,-1,-5,-3,-5,-4
15:33:18.087607,-1,-2,-2,-2,-1,-4,1,3
15:33:18.101600,1,-1,0,2,3,2,-11,2
15:33:18.108596,2,2,0,3,8,5,0,-1
15:33:18.124586,-1,-1,-1,-3,-3,-1,4,0
15:33:18.124586,-3,-5,-2,-3,-4,-3,-13,-7
15:33:18.146569,-3,-1,1,0,2,8,11,-10
15:33:18.146569,1,1,-1,0,0,-3,-6,-5
15:33:18.161562,-6,-3,-4,-4,1,3,-5,-7
15:33:18.176554,-1,-3,-4,-3,-8,-2,-3,1
15:33:18.184549,-4,-5,-3,-5,-4,-3,-2,1
15:33:18.184549,1,0,0,1,-2,-3,-3,-1
15:33:18.206535,-4,-3,-3,-1,-1,-2,-4,-5
15:33:18.207532,1,-4,-5,-3,-1,-3,-3,-4
15:33:18.229518,-2,-2,-2,-1,2,2,-16,-5
15:33:18.229518,-2,-3,0,-1,2,3,0,-2
15:33:18.244510,-1,-3,-5,-3,-1,1,0,-1
15:33:18.244510,-2,0,-3,-4,-3,-7,-6,-6
15:33:18.274491,-3,3,-2,1,3,-1,-6,-2
15:33:18.274491,7,0,0,0,0,-7,-8,9
15:33:18.289484,-5,-4,-2,-4,-3,0,-2,-8
15:33:18.289484,-1,-2,1,2,-1,1,2,3
15:33:18.304474,3,2,3,2,3,3,3,2
15:33:18.304474,-2,-4,0,-3,-6,-7,-8,-4
15:33:18.326461,-2,0,0,-1,-3,-16,-18,0
15:33:18.327460,3,5,3,5,5,-3,4,6
15:33:18.349443,-7,-4,-5,-4,-4,-4,-9,-12
15:33:18.349443,-3,-1,-3,0,-1,-4,-5,0
15:33:18.364436,0,0,-1,0,-1,-8,-15,4
15:33:18.364436,-3,-3,-1,2,-2,6,-2,-3
15:33:18.386424,2,2,-4,-1,2,3,16,8
15:33:18.387423,0,-3,-1,-2,4,2,3,5
15:33:18.409407,-5,0,2,-5,-8,0,2,-5
15:33:18.410406,1,-3,-3,-2,-2,-4,-4,-3
15:33:18.431395,-4,-3,-4,-2,-4,-2,-6,-1
15:33:18.432395,0,-4,-3,-4,-3,-4,-4,0
15:33:18.446384,7,0,2,1,1,0,12,30
15:33:18.447383,0,5,3,2,1,4,7,2
15:33:18.469373,-6,-1,-5,-3,-6,-2,-1,-5
15:33:18.469373,0,2,1,2,6,5,-1,2
15:33:18.484359,-1,1,-2,-3,-5,-1,2,2
15:33:18.484359,-1,0,-2,-1,0,4,8,-9
15:33:18.506349,-3,0,-2,0,0,4,5,3
15:33:18.507346,0,-2,1,0,-2,1,-3,-5
15:33:18.529333,-5,-3,0,-6,-3,-1,-3,-1
15:33:18.529333,0,-3,1,-2,0,3,-12,-5
15:33:18.544326,1,1,0,1,-2,-4,9,20
15:33:18.544326,-5,-4,-4,-4,-3,-1,-5,-5
15:33:18.566311,1,0,-1,-1,-2,0,2,2
15:33:18.567309,-2,-4,-3,-4,-3,-4,-7,-7
15:33:18.589295,0,-3,-3,-1,-3,-4,-3,-3
15:33:18.589295,-3,-1,-1,2,-1,-3,-6,1
15:33:18.604285,0,-1,-1,0,-2,2,1,-1
15:33:18.604285,-1,-1,-1,-2,-4,-2,-3,-3
15:33:18.626274,0,-1,0,2,2,-4,-3,2
15:33:18.627274,0,1,2,4,1,-5,-6,0
15:33:18.649260,-4,-4,-3,-7,-4,-7,0,-10
15:33:18.649260,-1,-1,0,-3,0,2,-4,-1
15:33:18.664251,-2,-2,0,0,-6,-4,8,1
15:33:18.664251,1,0,1,2,-1,6,6,-1
15:33:18.687234,-4,-3,-3,-1,-4,-5,-10,-6
15:33:18.687234,-4,-3,-3,0,-1,-2,1,-5
15:33:18.709223,4,2,2,4,9,1,-5,5
15:33:18.709223,-5,-2,-3,-3,-3,-1,-3,-1
15:33:18.724214,-4,-1,-2,-1,-2,-4,4,0
15:33:18.724214,-3,-1,-1,-3,-2,-2,-8,-1
15:33:18.747197,1,1,0,0,-2,1,-2,-3
15:33:18.754196,0,1,2,0,5,3,0,-3
15:33:18.769186,1,0,-3,-2,2,7,12,5
15:33:18.770187,-4,-1,-2,1,-2,1,0,-6
15:33:18.784177,-3,-4,0,0,-6,-2,-5,-8
15:33:18.785173,0,-1,2,-1,-5,5,-2,0
15:33:18.807160,2,1,1,1,2,3,3,3
15:33:18.807160,-3,-2,-3,-1,-7,-3,-3,-2
15:33:18.829149,-3,-4,-4,-3,-3,0,-1,0
15:33:18.829149,1,1,-2,0,0,4,-7,1
15:33:18.844140,2,-1,2,-3,-3,-5,-5,1
15:33:18.845139,-3,-3,-2,-3,-3,-4,0,-7
15:33:18.866124,-5,-1,-1,-4,-2,-3,-5,-8
15:33:18.867125,2,2,1,1,-3,-5,13,16
15:33:18.889112,1,-1,-2,-3,0,-3,-4,-2
15:33:18.896106,-4,-3,-2,1,-2,-6,-5,-4
15:33:18.904102,1,2,1,3,6,3,2,1
15:33:18.912095,0,-3,3,1,-3,-3,-3,-2
15:33:18.927088,-4,-1,2,-1,0,7,3,-1
15:33:18.927088,-1,1,1,-3,3,2,4,0
15:33:18.949074,-1,0,-1,-3,-3,-1,13,0
15:33:18.950074,-4,-1,-1,-4,-6,-7,-4,-7
15:33:18.979056,-4,-5,-5,-3,0,-4,-1,-3
15:33:18.980053,-3,0,-1,-1,-2,-1,-1,-2
15:33:18.986049,0,1,-1,-1,-1,-1,-8,-4
15:33:18.987049,-1,1,0,-4,-3,1,9,2
15:33:19.009037,0,-1,-1,-3,2,0,-5,-4
15:33:19.017033,-2,-1,-1,0,1,-3,-2,-2
15:33:19.032023,1,-2,0,0,-4,-7,-9,-6
15:33:19.032023,1,-4,0,1,7,7,16,1
15:33:19.047011,-1,1,-1,0,-1,2,1,3
15:33:19.047011,0,-4,-5,-1,-2,-7,-12,1
15:33:19.069000,-2,-1,-2,-2,-4,-1,-6,-3
15:33:19.069997,0,-2,-1,-2,0,2,1,-1
15:33:19.091984,0,-4,2,-1,-1,0,-1,-4
15:33:19.091984,-6,0,-4,-3,-1,-1,-1,-2
15:33:19.106975,-4,-3,1,-4,1,1,-11,-7
15:33:19.107976,9,3,4,7,9,17,33,13
15:33:19.128963,-1,2,2,4,4,5,0,2
15:33:19.129960,-4,-4,-5,-3,-5,-8,-2,-5
15:33:19.151947,1,-1,0,0,-3,4,-1,-1
15:33:19.151947,-2,0,-2,0,-2,-1,-3,-5
15:33:19.173936,4,1,-1,1,-1,-2,-4,3
15:33:19.174934,-1,-1,-3,-3,-2,-1,-3,-5
15:33:19.188926,-4,-4,-1,-1,-4,2,1,-5
15:33:19.189925,2,-1,-2,-4,-1,5,4,0
15:33:19.211908,-4,-1,-5,-3,-3,-3,-5,-2
15:33:19.211908,-5,-6,-1,-3,-6,-3,-3,-5
15:33:19.226899,-7,-6,-6,-4,-1,0,-14,-10
15:33:19.226899,3,1,-1,1,4,6,5,6
15:33:19.248888,4,0,-2,-3,0,2,11,14
15:33:19.249887,-1,0,0,-1,0,-3,0,1
15:33:19.271872,-4,-1,-3,-7,-11,-9,11,-6
15:33:19.271872,-5,-3,-2,-1,-3,-1,-1,2
15:33:19.286865,-2,1,2,-2,-3,-1,-2,0
15:33:19.286865,-1,-3,-2,-1,-4,-1,-1,-5
15:33:19.308851,1,1,-3,1,-3,-4,-2,0
15:33:19.309851,3,-2,-1,-1,-4,1,3,2
15:33:19.331836,-3,-2,0,-1,0,-1,-3,-1
15:33:19.331836,0,-1,-4,-1,0,3,2,-1
15:33:19.346825,1,0,-2,-2,-4,4,7,9
15:33:19.346825,0,-3,-1,-2,-4,-8,-13,-1
15:33:19.377809,-1,3,2,0,3,-6,-1,1
15:33:19.377809,0,5,4,2,1,-2,5,6
15:33:19.391800,0,0,3,0,5,11,5,3
15:33:19.391800,0,0,-4,-1,-4,-4,-2,-3
15:33:19.406791,0,-2,0,-2,1,2,-1,-1
15:33:19.406791,0,0,0,1,-2,-10,-17,-1
15:33:19.428777,5,3,1,10,4,-5,5,5
15:33:19.429774,0,0,-2,-5,-3,-5,10,-3
15:33:19.451763,-1,0,3,-1,-1,3,-3,-3
15:33:19.451763,-1,1,2,4,2,-2,-4,-6
15:33:19.466753,1,-1,2,1,-2,3,-3,-7
15:33:19.466753,-2,3,3,-2,1,0,0,0
15:33:19.488740,-3,0,-1,1,0,-3,-1,-5
15:33:19.489739,2,-1,1,2,3,2,-2,-1
15:33:19.511726,-4,-4,-1,-4,-6,-4,-3,2
15:33:19.511726,-3,0,-1,-3,-1,-2,-2,-2
15:33:19.526716,-2,-1,-1,-3,1,1,2,0
15:33:19.526716,-2,-1,-2,-4,-1,3,23,5
15:33:19.548702,-2,-1,-1,-2,-2,2,-10,-6
15:33:19.549699,0,-3,-2,-1,-4,0,-5,-5
15:33:19.571689,-3,-1,-2,1,3,-1,11,17
15:33:19.572685,-3,-1,0,3,0,1,-10,-2
15:33:19.586679,2,2,0,-3,0,-3,1,0
15:33:19.587676,1,-1,2,-4,-2,0,9,-7
15:33:19.608665,1,-3,-4,0,-1,0,0,4
15:33:19.609665,-3,-2,0,1,6,10,1,-1
15:33:19.631650,1,-1,-3,-4,-6,-6,-7,-4
15:33:19.632650,-3,-2,-2,1,-1,-4,-8,3
15:33:19.646641,-1,-3,-3,-4,-3,1,-3,2
15:33:19.646641,0,0,-2,-1,0,1,-4,-5
15:33:19.668629,-5,-6,-1,-4,-4,-2,-1,-4
15:33:19.669626,1,1,3,1,2,1,0,0
15:33:19.691614,4,0,1,1,0,3,7,12
15:33:19.692614,-1,-1,-3,1,-2,0,-4,-3
15:33:19.713598,0,-3,-4,-3,-3,0,-4,-5
15:33:19.714599,-4,-3,-3,-2,-2,-3,-4,-7
15:33:19.729588,-4,-3,1,0,-1,-7,-10,-3
15:33:19.729588,0,-2,-2,2,-1,-4,-12,-1
15:33:19.751577,3,0,0,2,0,-3,1,1
15:33:19.752573,0,-2,0,2,-4,0,-2,-2
15:33:19.766567,3,0,0,1,-2,1,-12,0
15:33:19.767568,-2,-2,-5,-2,-3,2,5,-4
15:33:19.789553,-1,-1,0,-3,0,5,-6,-5
15:33:19.789553,1,-3,-3,-3,-4,-7,-11,-3
15:33:19.811540,-1,-2,2,0,-1,-2,-1,-4
15:33:19.812538,-2,1,0,-4,1,-4,-2,-2
15:33:19.826530,-2,-2,0,0,-3,-6,-22,-3
15:33:19.827530,-1,2,1,-2,0,1,1,-2
15:33:19.849514,3,0,0,4,5,1,3,0
15:33:19.849514,2,-1,-4,-3,1,1,7,7
15:33:19.871500,-1,-2,-4,-2,-3,6,9,-2
15:33:19.872499,-4,-2,1,2,1,-3,-9,-9
15:33:19.894486,-2,0,-2,0,0,2,11,-3
15:33:19.894486,0,1,-2,-1,-2,-2,1,-1
15:33:19.908480,-4,-4,0,-4,-3,2,1,-1
15:33:19.909478,0,3,2,6,2,-2,-5,1
15:33:19.931465,3,-1,0,0,3,-1,3,1
15:33:19.932464,-1,-4,-1,-4,3,2,-1,-2
15:33:19.954450,-5,-2,1,-3,-4,1,-6,-1
15:33:19.954450,3,3,1,-1,-1,2,6,11
15:33:19.969440,-2,1,5,1,3,-1,-2,-2
15:33:19.969440,2,3,4,0,0,-3,-3,5
15:33:19.991428,-1,-3,0,-1,-2,1,-5,-3
15:33:19.992425,-1,0,-1,0,3,1,7,0
15:33:20.014412,-4,-1,-2,-5,-2,1,-10,-3
15:33:20.014412,0,0,-1,-5,-3,-4,2,-3
15:33:20.029402,-1,-1,0,-1,-1,-3,-2,-4
15:33:20.029402,-1,2,-2,1,-1,4,-1,-2
15:33:20.051391,-2,-2,1,-5,-4,-3,-3,-1
15:33:20.052388,-1,-2,0,0,-1,-1,2,4
15:33:20.074374,-3,-2,-1,-2,-1,-1,-6,-5
15:33:20.074374,4,4,2,6,11,15,25,12
15:33:20.089364,-2,-1,-2,-1,-4,-7,-5,-3
15:33:20.089364,-2,-3,-3,0,-3,-3,13,-4
15:33:20.119346,-1,0,0,-2,-1,-4,-10,-3
15:33:20.119346,-1,-5,1,-4,1,-3,2,-5
15:33:20.141336,-5,0,-1,-1,2,0,-1,-2
15:33:20.142332,-3,-2,-1,-8,-2,0,-3,-5
15:33:20.149329,-2,-3,-4,-5,-1,1,-2,-3
15:33:20.149329,-1,-3,-1,-4,-4,-5,-2,-3
15:33:20.171316,1,-2,1,-2,-5,-9,-15,6
15:33:20.172316,1,2,-1,1,0,5,6,6
15:33:20.201298,-4,-5,-3,-7,-1,3,7,4
15:33:20.202294,-3,0,0,-3,0,-4,-12,-6
15:33:20.209293,-1,2,5,0,0,0,2,-2
15:33:20.209293,-2,1,-2,-1,-2,1,3,1
15:33:20.231279,-1,3,-1,-2,-3,-2,-5,-3
15:33:20.232276,-2,-2,0,-1,4,3,-2,-2
15:33:20.254265,-1,1,-1,-2,0,-1,2,-1
15:33:20.255265,2,6,0,0,-1,-4,0,4
15:33:20.269256,0,-4,-5,1,-3,14,9,4
15:33:20.269256,-3,3,1,-1,-3,-1,-5,-7
15:33:20.291242,-2,0,-4,-2,-1,-3,-1,-4
15:33:20.292241,0,1,1,-1,1,7,-1,-4
15:33:20.314227,-4,-2,-1,-4,0,-1,7,2
15:33:20.315226,-1,0,2,-1,-5,-2,-7,0
15:33:20.329238,-2,0,-4,-1,-3,2,0,1
15:33:20.329238,0,0,-1,-2,-6,-9,-2,-3
15:33:20.351205,-6,-5,-3,-1,1,0,-7,-4
15:33:20.352205,-1,-1,0,2,2,-3,10,1
15:33:20.374189,2,0,-2,2,2,8,1,2
15:33:20.374189,-3,0,1,-1,-2,3,-3,-2
15:33:20.389182,-7,-3,-2,-3,-5,0,-6,-7
15:33:20.390178,2,-3,1,1,3,5,-7,5
15:33:20.411167,1,-2,2,-1,4,4,0,-1
15:33:20.412167,-1,3,3,5,3,1,4,0
15:33:20.434154,-1,2,-3,-4,-4,-2,-7,-4
15:33:20.435154,1,-2,-5,-2,-3,-2,9,-5
15:33:20.449144,1,-4,0,-1,-3,0,-5,1
15:33:20.456140,-2,-3,-6,0,0,0,-5,-8
15:33:20.479126,-1,-1,0,0,0,0,-4,2
15:33:20.480123,-1,-1,-2,3,-1,-4,2,2
15:33:20.494116,-2,0,1,-1,-2,-4,-1,0
15:33:20.495115,-3,-1,0,2,0,-2,-7,-3
15:33:20.509107,-2,-4,-3,-1,-1,-2,2,2
15:33:20.517102,2,-2,-1,0,0,2,4,4
15:33:20.531092,2,-3,1,0,-4,1,9,7
15:33:20.532090,-4,-2,-5,-6,-6,-6,-12,-1
15:33:20.554080,0,1,2,0,3,10,5,2
15:33:20.555079,-1,1,3,3,4,-5,-12,-2
15:33:20.569070,0,0,-2,-7,-3,-4,0,1
15:33:20.576066,-2,1,-4,1,-4,-3,1,-1
15:33:20.592053,-2,2,0,1,-2,-4,-8,-8
15:33:20.592053,-2,-3,-1,-1,3,-5,-1,0
15:33:20.614042,-1,-4,-1,2,2,0,3,-2
15:33:20.614042,1,0,-1,1,2,-3,-22,-3
15:33:20.629033,-2,-2,2,-1,0,0,-5,1
15:33:20.637028,-6,-1,-3,-4,-1,3,11,-8
15:33:20.652015,0,-2,0,0,0,-1,-2,3
15:33:20.652015,2,-1,2,4,6,-2,3,0
15:33:20.674005,-1,-2,-2,1,-2,-5,-2,-4
15:33:20.675004,-1,2,-1,-1,-1,1,-6,-8
15:33:20.688995,-1,0,0,-1,-3,0,6,7
15:33:20.696989,-1,-1,-3,-3,-2,-3,-14,-11
15:33:20.711979,0,1,-1,3,0,-2,-2,7
15:33:20.711979,1,1,-3,1,1,-2,-7,1
15:33:20.733968,-5,-5,-2,-2,-4,-2,-2,-6
15:33:20.734967,-3,1,-2,0,0,-7,-10,-4
15:33:20.748958,-3,-1,1,-1,-2,-1,0,-4
15:33:20.763947,0,-3,-2,-5,-6,-4,-3,-2
15:33:20.771942,-3,-1,0,2,-4,0,-7,-3
15:33:20.771942,3,4,5,5,4,4,1,5
15:33:20.793930,-3,-3,-3,-1,0,-1,-5,-8
15:33:20.794927,1,-1,2,2,2,0,7,-9
15:33:20.808921,-1,1,1,-2,0,0,-3,-5
15:33:20.816916,-5,-2,-4,0,-4,-9,3,-6
15:33:20.838903,1,1,3,2,2,0,-15,2
15:33:20.839899,-1,1,0,0,-2,1,-2,-3
15:33:20.853893,1,0,3,2,3,3,3,3
15:33:20.854893,3,2,1,1,0,-1,0,1
15:33:20.869884,-1,-1,2,0,-2,-3,2,1
15:33:20.876879,-1,0,0,-1,6,3,-2,2
15:33:20.891867,-4,-4,-4,-4,-5,1,-13,-12
15:33:20.891867,2,0,-2,-1,0,4,5,0
15:33:20.921849,-4,-2,-1,0,-3,-4,-1,-1
15:33:20.921849,-5,-3,0,-4,-1,2,1,-3
15:33:20.928845,8,2,1,3,4,2,15,16
15:33:20.936842,1,-4,0,0,1,1,-2,-1
15:33:20.958828,-1,0,-1,0,-5,-4,-7,-5
15:33:20.959825,0,1,-2,0,0,3,7,3
15:33:20.973819,-1,-1,2,-2,-3,-3,-1,-1
15:33:20.974818,-3,1,0,-1,-1,-8,-6,-6
15:33:20.989809,-1,-3,-1,-4,2,1,13,-1
15:33:20.996802,6,4,-2,0,-2,1,12,26
15:33:21.011796,-1,-2,-3,4,-1,-1,-2,-4
15:33:21.011796,-2,-2,-1,-3,-2,-1,-3,-6
15:33:21.033782,-1,-3,-1,-3,0,-2,7,0
15:33:21.034781,0,-3,0,0,-3,-5,-5,9
15:33:21.048771,1,0,-3,0,0,-1,3,-2
15:33:21.056768,-3,-2,-1,3,-2,-5,-6,-4
15:33:21.078753,-2,0,-1,-3,-4,1,5,-1
15:33:21.079751,5,0,2,-4,-2,0,-17,4
15:33:21.093744,1,-4,-3,-4,-3,0,1,-3
15:33:21.094744,-1,-2,-3,-4,-2,0,8,-3
15:33:21.116730,-1,-1,-2,0,1,-1,-4,-3
15:33:21.116730,-2,-1,1,-2,-2,-3,-1,-4
15:33:21.131720,-1,-1,1,3,2,-3,0,1
15:33:21.132717,-3,-2,-5,-2,-2,3,12,-2
15:33:21.153709,4,2,-1,-3,-4,-6,0,-1
15:33:21.154707,3,4,2,2,2,0,-5,-3
15:33:21.176693,1,-3,0,-3,-1,6,4,6
15:33:21.176693,1,0,2,1,2,1,1,0
15:33:21.191684,0,-4,1,0,1,-2,0,-5
15:33:21.192687,3,3,-3,1,1,1,-2,6
15:33:21.213673,1,-1,-2,0,-1,-3,8,8
15:33:21.214666,0,-2,-4,-3,-4,-4,0,-4
15:33:21.236656,6,6,5,7,2,-3,19,7
15:33:21.237656,1,-1,-1,0,5,3,-6,0
15:33:21.251646,-3,-2,-2,-3,-2,-4,1,-3
15:33:21.258651,-1,-3,1,0,2,3,-1,2
15:33:21.273630,0,-3,-4,2,-1,-1,5,6
15:33:21.274632,-1,3,-1,-4,2,0,1,2
15:33:21.296618,-2,-1,-3,-2,-3,-2,-2,-1
15:33:21.296618,3,0,-1,0,-3,1,-4,-1
15:33:21.311609,0,-1,-5,0,-2,-3,-2,-4
15:33:21.312606,0,0,-2,-3,1,10,17,5
15:33:21.334595,-1,-4,-1,-1,-2,-1,5,6
15:33:21.334595,-1,0,-5,-2,-9,-8,-13,-5
15:33:21.356582,-2,-1,-2,-4,2,-9,-18,2
15:33:21.357580,0,-3,0,-1,-1,0,2,2
15:33:21.371570,-6,-1,-1,0,-1,-2,1,3
15:33:21.371570,-1,2,2,-1,-3,-1,-2,-2
15:33:21.394557,4,2,4,7,11,5,7,9
15:33:21.394557,-5,-4,-4,-5,-8,-11,-13,-9
15:33:21.416543,-3,-1,-2,-2,-3,-5,-5,-2
15:33:21.417541,3,0,-1,0,1,3,4,1
15:33:21.431534,-1,0,2,-2,-4,-5,-14,-6
15:33:21.439530,0,-3,1,-2,-4,-4,-18,0
15:33:21.454520,2,2,-1,1,4,6,20,4
15:33:21.454520,-1,-4,-4,-4,-2,-3,-3,-5
15:33:21.476507,-3,-3,0,-5,-4,-9,-5,-5
15:33:21.477507,0,1,-2,-1,1,4,3,3
