timestamp,emg1,emg2,emg3,emg4,emg5,emg6,emg7,emg8
16:31:16.415433,0,1,-1,-2,-2,6,24,10
16:31:16.424425,0,-1,-2,-1,-2,-5,-6,-3
16:31:16.442415,-2,0,-4,1,-3,4,16,2
16:31:16.443413,-5,-3,-1,-1,0,0,-2,-5
16:31:16.453407,0,0,1,0,0,-1,2,-2
16:31:16.460405,-3,1,-1,-3,-3,-10,-17,-2
16:31:16.475393,-2,-2,-2,-2,3,2,7,-4
16:31:16.483387,2,1,-1,-1,-1,-1,10,4
16:31:16.497379,1,2,3,0,3,-6,-2,-3
16:31:16.498380,2,-2,-1,-2,0,-1,2,13
16:31:16.520364,-6,-2,-3,0,-2,2,-5,-11
16:31:16.520364,-2,-3,-3,1,-4,5,-4,-2
16:31:16.535355,0,-1,-4,-3,-3,-1,1,-1
16:31:16.542367,-4,-3,-4,-2,0,-1,-1,1
16:31:16.557341,1,-1,-2,0,-3,-7,-18,1
16:31:16.558342,-5,0,0,-2,0,0,1,-2
16:31:16.572334,-3,1,-2,0,-1,-3,-2,-4
16:31:16.580329,-2,-2,1,-2,-1,-13,-46,-13
16:31:16.595320,5,3,1,0,3,16,34,20
16:31:16.602319,-5,-5,-2,0,1,-5,2,-13
16:31:16.625302,-5,-5,0,2,4,5,-14,-9
16:31:16.625302,-4,-6,-3,-4,-3,-5,-5,-9
16:31:16.632298,-1,0,-2,-1,-2,7,3,2
16:31:16.648286,-3,-1,-1,-1,1,1,0,2
16:31:16.655283,1,-1,0,-1,-1,-1,-2,-2
16:31:16.662279,-3,-3,1,-2,1,12,15,1
16:31:16.677273,0,3,1,1,0,0,-11,-6
16:31:16.678267,-1,0,-3,-2,-1,-3,-1,-5
16:31:16.693258,5,-3,0,-3,1,-1,-18,1
16:31:16.700263,3,-1,-2,-3,1,16,23,15
16:31:16.715246,4,4,-3,-2,-3,-8,-7,0
16:31:16.722268,-2,1,-1,-1,-5,-3,-1,-7
16:31:16.737234,-1,0,-2,-1,-3,-6,-13,1
16:31:16.738231,-3,0,-2,-1,-3,-4,-1,-1
16:31:16.753223,1,-1,-1,-2,-3,-7,-24,6
16:31:16.768214,-5,-1,0,2,-3,-5,1,-3
16:31:16.775209,6,-4,-2,-1,2,6,0,-5
16:31:16.783204,0,0,0,1,2,1,-2,-9
16:31:16.797199,0,-1,-1,-4,2,5,4,0
16:31:16.798194,0,-2,-1,2,-1,-4,-11,-6
16:31:16.813184,-2,-1,-1,-3,-3,-2,6,1
16:31:16.820181,2,1,-1,0,5,1,-6,-6
16:31:16.835170,-4,-3,-3,-3,0,7,-13,-7
16:31:16.842170,0,-2,-1,1,4,4,14,12
16:31:16.858157,-3,-5,-2,-2,-3,0,4,-3
16:31:16.858157,-4,-2,0,2,-3,-4,-5,-8
16:31:16.873147,6,-2,-1,0,1,11,5,8
16:31:16.880142,-9,-3,0,-1,3,-1,-2,-7
16:31:16.895133,-5,-5,-2,-4,-3,-1,-2,-15
16:31:16.910125,4,-3,-3,-1,0,-2,-7,16
16:31:16.917123,-4,1,1,-1,0,-6,-11,-10
16:31:16.918119,0,4,0,0,8,19,20,7
16:31:16.948102,-2,-1,0,-4,-2,1,-1,-7
16:31:16.948102,-1,1,1,-1,3,3,-11,5
16:31:16.955097,-4,1,0,-1,-2,-3,-7,-5
16:31:16.963092,-1,-3,0,3,3,4,15,7
16:31:16.978083,4,-2,0,-2,0,3,5,3
16:31:16.978083,-2,-2,-1,-2,0,-1,-1,-6
16:31:16.993075,-4,2,3,2,4,1,0,-7
16:31:17.000069,-5,0,0,1,2,6,2,-16
16:31:17.015060,3,1,5,1,3,2,1,1
16:31:17.022059,-1,-2,1,3,3,14,2,4
16:31:17.038047,0,-5,-1,-1,-1,15,34,-2
16:31:17.045041,-5,-1,-3,-1,0,0,0,0
16:31:17.053038,2,0,1,0,-2,-4,2,-1
16:31:17.060032,1,4,1,0,-1,0,0,-4
16:31:17.075027,-1,-3,-2,-3,-1,3,3,2
16:31:17.083018,-6,-2,0,-2,-2,-5,-5,-5
16:31:17.098011,-1,0,-1,-2,-2,0,-11,-7
16:31:17.098011,-4,-3,-3,-1,1,-6,-8,-6
16:31:17.113000,10,-2,0,1,5,9,8,23
16:31:17.120012,-6,-5,-3,-1,-2,-6,-4,-6
16:31:17.135013,3,-2,0,-1,1,9,-8,9
16:31:17.142981,-3,-2,-1,-1,0,6,32,0
16:31:17.157974,6,2,2,-2,1,0,0,6
16:31:17.157974,-3,0,0,-3,0,11,12,2
16:31:17.172964,-2,1,-2,-1,-3,0,3,-1
16:31:17.179959,-2,-3,-1,1,-1,-7,-13,-1
16:31:17.202945,-2,-3,-4,-3,-6,-9,-12,-3
16:31:17.202945,8,1,-1,1,4,13,30,33
16:31:17.217935,0,-2,-1,2,-6,-8,-12,-9
16:31:17.217935,3,3,0,-1,1,0,-5,12
16:31:17.239921,-2,-1,-1,1,-1,4,26,-10
16:31:17.240922,1,-3,-1,0,1,1,-2,-5
16:31:17.254915,3,-1,-1,1,1,-2,6,-1
16:31:17.262912,1,1,0,-1,-2,2,0,-1
16:31:17.277898,16,1,-1,-2,-2,0,19,24
16:31:17.284895,-3,1,0,1,1,7,-1,0
16:31:17.292891,0,4,0,-4,0,-5,-8,-8
16:31:17.300886,-4,0,-1,2,-3,-4,-6,-6
16:31:17.322870,0,-4,-2,-1,-2,-1,-11,-2
16:31:17.322870,-5,-2,-3,-1,-3,-3,-4,-7
16:31:17.337863,-2,3,0,2,1,5,-4,-3
16:31:17.344858,3,-1,-4,-4,0,-2,-11,10
16:31:17.352854,-1,-1,1,1,-4,2,31,13
16:31:17.359850,7,3,1,4,6,14,23,14
16:31:17.382833,2,2,-2,1,3,4,2,0
16:31:17.382833,1,-2,-2,1,2,4,2,1
16:31:17.397828,-5,-3,2,-1,-2,-4,9,-1
16:31:17.405820,2,-1,0,0,-1,0,11,4
16:31:17.420811,-5,-4,0,0,2,3,3,-4
16:31:17.420811,0,-5,1,-3,1,-8,-25,-5
16:31:17.435802,-4,-2,-1,2,-4,-3,3,-2
16:31:17.450795,-4,-1,1,1,-1,-1,2,0
16:31:17.457791,-1,0,-1,-1,4,2,12,-14
16:31:17.465787,-4,-1,-1,1,0,-10,-37,-5
16:31:17.480775,-2,0,1,1,1,4,10,4
16:31:17.481775,8,-1,-4,-4,-4,-5,-2,9
16:31:17.495765,-3,-1,3,0,3,-5,10,-6
16:31:17.502762,2,1,-1,0,2,1,0,2
16:31:17.517753,0,-1,0,0,2,9,4,2
16:31:17.525749,3,-1,0,3,3,6,-5,-6
16:31:17.540737,2,-1,-1,1,1,7,12,5
16:31:17.540737,-3,0,-1,-1,0,-6,-4,-5
16:31:17.555728,4,1,-1,0,-2,-4,-22,13
16:31:17.563724,-1,-3,2,0,0,-3,3,-5
16:31:17.577715,-4,-2,-2,1,-2,-5,-5,-12
16:31:17.585712,0,-2,0,-1,5,11,19,5
16:31:17.600700,-2,-1,-3,0,-1,-3,14,3
16:31:17.600700,-4,2,1,1,1,-2,-1,0
16:31:17.615694,-6,-3,-2,-4,-6,-8,-13,-11
16:31:17.630682,-1,-5,-2,-2,4,7,-2,6
16:31:17.637677,-1,2,0,-1,-3,0,0,-2
16:31:17.645675,1,-2,-2,-1,1,-7,0,-4
16:31:17.660663,9,3,2,-4,-5,-8,-10,26
16:31:17.660663,-4,0,2,-2,1,0,7,0
16:31:17.675657,0,-2,-4,-1,-3,1,0,-2
16:31:17.683653,-1,0,0,0,0,0,-8,-3
16:31:17.698643,6,3,2,-1,2,11,-1,17
16:31:17.705638,-2,-3,-3,-1,1,-1,5,1
16:31:17.720626,7,-2,0,0,-3,11,32,2
16:31:17.720626,6,5,2,-1,0,-6,-21,-4
16:31:17.735620,-3,-2,-4,1,2,-2,4,-5
16:31:17.750608,-3,-2,-3,-1,1,1,-1,-2
16:31:17.758604,3,2,-2,-2,-1,0,-3,1
16:31:17.765602,-3,-2,2,-1,-3,0,1,0
16:31:17.780589,-8,0,-2,-3,1,-4,-8,-4
16:31:17.781590,3,2,1,0,1,19,11,6
16:31:17.796583,-1,0,2,1,-1,3,20,2
16:31:17.802576,-7,-7,0,-1,-1,-4,-6,-6
16:31:17.818567,-1,2,-4,0,-6,-5,-7,-5
16:31:17.825565,2,-4,-1,1,-2,-1,-2,3
16:31:17.840556,1,1,-1,-3,-1,0,3,-1
16:31:17.840556,-1,-1,0,1,0,-3,3,2
16:31:17.855546,-4,0,0,-3,1,-3,-3,2
16:31:17.863541,-2,-2,1,1,1,-2,2,1
16:31:17.877532,3,-1,1,-1,-1,-1,-3,0
16:31:17.885528,-11,1,-2,-2,0,-1,-1,-3
16:31:17.900518,-4,-1,1,-1,-2,-2,-1,-4
16:31:17.900518,7,-1,-3,-5,1,-1,0,12
16:31:17.915509,-6,-4,2,-3,-4,-1,1,-5
16:31:17.923501,-4,-3,2,1,1,10,-1,-2
16:31:17.938495,-3,-2,0,1,2,-1,1,0
16:31:17.945487,-1,-4,-2,5,1,1,-3,-4
16:31:17.960482,-5,-2,0,-13,0,0,-9,-5
16:31:17.960482,-3,-4,2,2,-4,-8,-8,-4
16:31:17.975472,-2,-2,0,0,-1,-5,-4,-4
16:31:17.983468,-5,-3,-3,-1,-1,3,4,1
16:31:17.998458,0,-2,-1,-3,1,-1,-4,0
16:31:18.005451,-4,-3,-1,2,1,-14,-33,-8
16:31:18.020445,6,0,4,0,-1,1,7,19
16:31:18.021441,-4,0,0,7,13,3,14,-2
16:31:18.035435,-4,1,-5,-12,-17,-3,-3,-6
16:31:18.042432,2,-4,-2,4,4,4,0,-3
16:31:18.058418,-1,1,2,-7,-3,-4,-2,4
16:31:18.065417,-1,-2,3,5,2,1,2,-1
16:31:18.088399,0,-1,1,12,-1,-4,2,-1
16:31:18.088399,-2,1,0,12,4,-2,-1,1
16:31:18.095398,1,0,10,3,-2,-1,0,-1
16:31:18.102391,-1,-2,1,-5,-8,2,3,4
16:31:18.118381,0,3,-11,-1,1,-5,-1,-1
16:31:18.125380,-3,-4,-7,-12,-2,-4,-4,-4
16:31:18.140368,-1,0,7,16,2,-3,-3,0
16:31:18.141370,-1,0,-7,-16,-15,-4,1,-1
16:31:18.155361,3,3,-15,-40,1,1,1,1
16:31:18.163356,-5,-3,-18,-4,1,0,-2,0
16:31:18.178344,-2,-3,4,13,-15,-5,0,-5
16:31:18.185343,-1,-4,-30,-35,5,-3,2,-2
16:31:18.200334,-8,-6,-8,13,17,1,-6,-3
16:31:18.215322,2,2,3,4,-3,9,5,1
16:31:18.216322,-3,-5,14,7,-4,-7,-4,-1
16:31:18.223316,-1,-1,-25,-16,-30,1,-1,4
16:31:18.245306,-6,-3,22,-61,8,-3,-6,-7
16:31:18.246303,4,1,-4,-23,-7,3,6,6
16:31:18.260295,-1,6,57,43,1,0,-1,0
16:31:18.268289,2,2,10,-1,8,6,4,3
16:31:18.275288,-9,-7,9,6,-69,-14,-5,-6
16:31:18.283282,0,1,-27,-118,10,5,-5,-2
16:31:18.298274,1,3,-43,-121,-128,-30,-1,2
16:31:18.305269,-20,-24,-43,80,106,-6,-12,-17
16:31:18.320259,-27,-22,75,119,127,54,-11,-16
16:31:18.328251,22,16,-40,-128,-128,-23,15,23
16:31:18.343243,-11,-7,-30,-15,-128,-15,-9,-14
16:31:18.343243,2,48,127,127,127,127,9,-4
16:31:18.358237,11,-50,-30,-48,-128,-128,-1,17
16:31:18.365231,-23,-17,-128,-128,-128,19,-13,-23
16:31:18.380222,11,-44,-128,-128,-128,-128,-8,9
16:31:18.388218,-22,11,88,127,127,91,-12,-21
16:31:18.403209,46,26,-119,-17,-128,-20,36,42
16:31:18.410203,-28,-40,-42,-65,127,90,-6,-19
16:31:18.418200,12,43,127,127,127,-17,-5,5
16:31:18.425194,20,5,-2,127,-128,16,18,16
16:31:18.441184,-10,-1,68,127,-128,22,-2,-7
16:31:18.448182,-15,-47,-81,-45,127,-31,-13,-10
16:31:18.463169,23,52,34,-24,-13,29,16,19
16:31:18.470169,6,17,22,2,-22,11,5,-1
16:31:18.478162,-9,-4,-8,-22,-26,-9,14,-41
16:31:18.485156,14,3,-2,-16,-8,13,25,74
16:31:18.500147,-20,-19,-16,-24,-21,-20,4,-31
16:31:18.508141,-17,-42,-24,26,-18,-42,-20,-51
16:31:18.523132,33,41,5,-110,-36,44,61,58
16:31:18.530128,-7,-23,-27,-103,52,13,-2,-4
16:31:18.538126,-56,-106,-79,-19,-46,-18,-5,-35
16:31:18.545119,29,51,53,22,-37,5,23,10
16:31:18.560110,-23,-70,-69,-41,80,-33,-7,-4
16:31:18.568107,5,-5,15,-18,-23,19,2,2
16:31:18.591093,69,127,104,-94,-128,-56,4,12
16:31:18.591093,-128,-128,-112,63,-128,-111,-35,-44
16:31:18.598089,9,-58,-49,44,98,50,14,20
16:31:18.605082,30,-39,-100,10,127,-30,14,31
16:31:18.621075,29,108,127,-127,-128,-21,6,6
16:31:18.628070,-33,-23,-1,38,114,60,-8,-12
16:31:18.643061,57,72,26,-8,10,29,24,25
16:31:18.651056,-8,47,21,-33,127,-5,-3,-7
16:31:18.658052,8,10,5,127,111,19,2,0
16:31:18.666047,6,9,15,-108,-128,-100,0,4
16:31:18.681036,-8,-8,-39,-128,-128,-40,-9,-5
16:31:18.688034,-21,-58,-78,-28,-25,-4,-10,-8
16:31:18.703024,26,69,72,-21,-64,-4,2,3
16:31:18.704022,-25,-96,-70,-34,-44,-1,-1,-5
16:31:18.718015,14,22,15,-52,38,4,1,2
16:31:18.725013,13,44,39,-33,-128,-62,-1,2
16:31:18.740999,-1,25,4,-26,-54,-14,-7,-3
16:31:18.747994,7,27,17,-16,-46,3,2,1
16:31:18.770980,-10,-20,-17,-19,-6,11,-1,-4
16:31:18.770980,-6,-24,3,49,94,50,4,-3
16:31:18.777978,-35,-84,-90,-56,12,9,-11,-13
16:31:18.785973,-51,-100,-89,-79,-128,0,-16,-21
16:31:18.800963,-8,-24,-33,53,99,-8,-6,-6
16:31:18.807960,16,27,46,53,87,-12,5,5
16:31:18.830944,8,34,47,44,51,17,4,0
16:31:18.830944,1,1,-15,50,-48,-12,1,1
16:31:18.837941,37,56,55,119,71,19,10,13
16:31:18.852932,12,19,-1,-128,127,44,8,7
16:31:18.860925,7,2,-13,-15,4,-9,5,7
16:31:18.867923,-32,-64,-47,-49,-15,0,-8,-11
16:31:18.882914,-5,-13,24,-29,-109,-3,-2,-3
16:31:18.883912,-17,-15,18,-13,-89,-22,-11,-15
16:31:18.905898,-31,-53,-48,-72,28,-35,-17,-15
16:31:18.905898,21,47,50,38,-70,7,6,6
16:31:18.920891,6,15,1,-116,-43,-43,-2,-2
16:31:18.927886,-12,-20,-13,51,102,44,1,-3
16:31:18.942877,4,-14,-44,-91,-128,-24,1,5
16:31:18.943873,1,3,-5,-3,28,-6,-6,-2
16:31:18.957867,6,15,41,127,69,54,5,2
16:31:18.965862,7,19,18,40,122,15,2,5
16:31:18.987849,-32,-76,-79,-97,-58,-34,-9,-12
16:31:18.988847,4,11,44,127,127,33,4,2
16:31:19.010831,8,21,35,-48,-64,7,0,1
16:31:19.010831,21,58,12,-128,-128,-55,-7,0
16:31:19.017831,-13,-21,-29,3,-68,-9,-3,-2
16:31:19.025823,9,11,8,21,16,17,2,5
16:31:19.040817,5,21,15,-27,-69,-15,-2,2
16:31:19.047812,1,9,30,19,36,4,0,-1
16:31:19.062803,-10,-24,-17,-49,-70,-2,-6,-5
16:31:19.063799,5,15,17,19,-115,3,2,5
16:31:19.077794,-24,-33,-27,-43,2,2,-8,-12
16:31:19.085789,8,20,16,-53,-75,-29,0,2
16:31:19.100777,18,38,27,11,-35,15,8,10
16:31:19.107773,21,41,26,-47,-128,-20,4,11
16:31:19.122766,-16,-31,-20,-13,-83,-36,-10,-6
16:31:19.123765,13,27,6,-45,-38,-13,8,9
16:31:19.137756,3,9,23,51,52,5,-2,0
16:31:19.145751,7,21,9,62,11,-5,2,3
16:31:19.160743,2,-6,18,87,127,37,7,2
16:31:19.167737,-3,-5,-5,-44,-19,-13,-2,-3
16:31:19.182728,7,-2,11,76,26,3,8,6
16:31:19.197720,2,5,19,84,-69,-20,1,2
16:31:19.198716,-3,5,5,0,-4,-11,-2,-5
16:31:19.205715,-3,-14,-17,-38,-58,1,1,0
16:31:19.220705,-7,-5,0,-59,-128,-20,-4,-6
16:31:19.228698,0,0,5,10,37,14,2,-2
16:31:19.242690,0,7,10,2,-21,-4,-1,0
16:31:19.250687,-3,-5,-10,6,3,-5,1,1
16:31:19.265678,-8,-11,-1,-26,-12,-1,-5,-2
16:31:19.266675,1,1,6,51,34,21,1,2
16:31:19.280669,-1,-3,-5,-3,-114,-31,0,-3
16:31:19.287662,-7,-3,2,9,44,11,-3,-4
16:31:19.302653,0,-4,0,0,-47,0,-5,0
16:31:19.317644,-2,3,3,-39,-48,-5,0,-3
16:31:19.325640,-16,-29,-32,-4,12,13,-4,-6
16:31:19.325640,2,2,4,-5,-31,-13,2,2
16:31:19.340632,1,7,9,12,26,6,-2,-1
16:31:19.347625,-7,-10,0,-32,-20,-7,-4,-5
16:31:19.363615,1,5,-1,4,-8,3,0,2
16:31:19.370613,0,-10,-6,27,4,17,7,5
16:31:19.385604,-18,-23,-21,-35,28,-1,-7,-8
16:31:19.386602,9,22,16,-21,-96,-28,1,8
16:31:19.400595,4,6,18,29,22,17,1,0
16:31:19.407588,-7,-5,0,-13,-20,-3,2,-1
16:31:19.422579,-23,-45,-38,-16,-25,-16,-9,-14
16:31:19.430576,5,3,-7,20,54,10,0,8
16:31:19.445567,4,13,7,-18,-74,-9,1,4
16:31:19.446566,-8,-15,-25,-32,-15,-8,-3,-6
16:31:19.475549,-19,-44,-43,-21,-31,-17,-10,-7
16:31:19.475549,-12,-28,-39,-61,-95,-19,-8,-8
16:31:19.483541,-10,-11,-12,-2,27,-8,-6,-8
16:31:19.490540,-4,-24,-58,-113,59,15,3,4
16:31:19.505528,5,13,23,20,-52,4,-2,1
16:31:19.506529,-4,-4,-6,-14,-16,-6,-8,-3
16:31:19.520521,5,-10,-16,-8,-4,6,6,8
16:31:19.527516,1,8,16,7,-45,-15,0,0
16:31:19.543506,-4,-22,-29,-2,67,11,0,4
16:31:19.550499,-10,-16,-43,-108,-23,-58,-16,-10
16:31:19.565493,-14,-29,-28,-12,43,8,-7,-6
16:31:19.566493,7,19,21,35,127,-1,-1,4
16:31:19.588476,3,11,-3,-59,-113,-18,0,1
16:31:19.588476,-23,-57,-98,-57,-82,-15,-11,-10
16:31:19.603470,6,16,25,100,127,24,5,3
16:31:19.610466,9,-2,-22,-28,-58,-25,0,7
16:31:19.633452,-10,-14,-26,-66,-128,-26,-8,-7
16:31:19.633452,-13,-16,-16,3,-19,-2,-12,-7
16:31:19.640448,-2,-14,-43,-128,-128,-40,-1,3
16:31:19.648439,-19,-20,-4,1,17,-1,-8,-11
16:31:19.663431,4,8,-10,-76,-28,-7,1,-2
16:31:19.678423,-2,-1,-4,-15,0,0,1,1
16:31:19.685420,-5,-9,-7,-5,12,1,-2,0
16:31:19.692439,0,-3,-1,-1,-4,2,0,-1
16:31:19.700410,-2,0,-3,-2,-5,-4,-2,0
16:31:19.715401,-4,-3,-1,-4,2,-1,3,1
16:31:19.723397,14,2,-2,0,0,-3,-9,4
16:31:19.738384,-11,7,7,6,6,8,21,-73
16:31:19.745379,-9,-10,-11,-4,7,4,-2,-15
16:31:19.746380,-35,11,12,12,12,-47,-37,-30
16:31:19.760373,-128,-28,-9,-14,4,2,-113,127
16:31:19.768366,13,16,-2,-3,-31,-4,-16,-128
16:31:19.783359,-17,-14,18,6,41,66,-128,127
16:31:19.790355,119,44,-4,1,-37,6,127,35
16:31:19.805346,-128,-9,31,44,43,-6,127,-94
16:31:19.806342,127,68,8,-3,0,7,-12,127
16:31:19.820336,-128,-7,-7,-11,-19,-51,127,-128
16:31:19.828330,57,32,1,-5,12,-41,-121,15
16:31:19.843322,-63,-10,-5,1,-32,-23,27,-44
16:31:19.850318,-3,-28,-17,-128,-20,0,-13,16
16:31:19.865309,35,42,25,64,-114,28,-27,-7
16:31:19.866306,-19,-27,-27,-128,15,-28,-36,3
16:31:19.880299,31,31,61,44,-105,-6,-2,-3
16:31:19.888291,26,-24,2,95,127,19,1,22
16:31:19.918273,19,-5,11,-105,-21,19,-4,42
16:31:19.919276,-128,51,-4,-128,-128,-1,11,-52
16:31:19.925272,127,-29,9,117,127,16,86,127
16:31:19.926270,15,72,6,-88,-128,49,-1,35
16:31:19.940262,24,18,-5,43,45,-23,-14,-13
16:31:19.963246,-84,-30,-62,65,124,7,-22,4
16:31:19.963246,-91,10,18,-128,-128,-60,7,-110
16:31:19.970243,127,2,8,118,127,98,2,-15
16:31:19.985235,94,37,18,36,127,68,91,127
16:31:19.986234,-15,5,-2,-34,-66,18,-108,-7
16:31:20.000224,3,8,4,127,127,47,6,90
16:31:20.008222,-17,0,8,7,51,-70,63,-34
16:31:20.023212,-12,27,-12,-95,68,-3,-70,57
16:31:20.030204,22,-17,-22,0,-123,17,29,-15
16:31:20.045197,-3,6,-8,-29,-117,-48,-17,-28
16:31:20.053190,-8,3,-2,-89,-16,11,24,0
16:31:20.060187,-18,-17,-22,18,-128,-24,-10,-10
16:31:20.068184,30,3,23,72,76,21,-2,-14
16:31:20.083175,3,-1,-75,-128,-117,11,-6,38
16:31:20.090172,-41,-16,15,73,127,23,6,-13
16:31:20.105159,64,-20,-2,103,127,33,20,13
16:31:20.113156,-4,10,15,-61,-35,-1,3,8
16:31:20.120150,-13,0,6,77,111,18,5,-4
16:31:20.128144,4,-22,-39,-84,15,-1,81,-24
16:31:20.143138,0,19,21,-11,-128,-45,-24,7
16:31:20.150131,-63,-35,-42,-90,-8,-55,-35,-27
16:31:20.166123,4,-2,76,127,-68,-20,1,20
16:31:20.173119,3,-1,-1,88,-37,0,6,-1
16:31:20.180113,-13,-3,21,21,127,15,-9,-2
16:31:20.188110,-12,-16,-19,33,46,-8,-10,-8
16:31:20.203098,-51,-3,-12,-128,-128,-1,5,-13
16:31:20.210094,-17,22,2,29,55,16,-7,38
16:31:20.226084,-41,-3,15,76,50,39,-3,16
16:31:20.233083,-9,-3,-59,-41,27,23,2,-9
16:31:20.248073,-9,9,13,88,-103,6,4,-10
16:31:20.249069,-20,-21,-25,2,-93,-22,-10,-12
16:31:20.270056,3,1,9,4,79,11,2,0
16:31:20.271056,22,9,6,-3,-15,-1,12,4
16:31:20.285049,-21,-18,-21,-128,-128,-49,-43,-23
16:31:20.293046,32,11,13,90,19,-16,-2,23
16:31:20.308036,-3,2,15,76,28,4,16,-13
16:31:20.308036,-10,-9,1,43,5,7,21,18
16:31:20.323027,7,-1,-8,62,25,12,20,18
16:31:20.331022,-11,-5,27,127,96,-6,-18,-17
16:31:20.346010,0,-1,4,35,17,5,36,-8
16:31:20.353009,8,4,1,4,5,-3,-24,10
16:31:20.368000,23,2,-2,-7,57,22,30,25
16:31:20.368000,-14,3,2,-35,-128,-50,-15,-14
16:31:20.382990,3,3,4,31,95,13,-5,-3
16:31:20.390983,4,-2,5,-17,39,4,0,6
16:31:20.405973,10,3,-1,27,17,0,-3,7
16:31:20.412969,6,2,-19,-48,-20,-4,-4,5
16:31:20.427962,8,-1,9,69,11,1,-22,-13
16:31:20.428960,-1,1,4,2,-7,0,4,4
16:31:20.442953,-26,-14,-9,-7,87,-9,-14,-27
16:31:20.450945,-3,-1,1,18,-54,-19,-46,-16
16:31:20.465939,-4,-2,0,10,48,15,12,12
16:31:20.472935,0,-3,-2,-6,-2,2,1,-4
16:31:20.487926,0,5,3,-95,-96,-2,3,-1
16:31:20.488922,-5,-2,1,12,13,-3,4,-4
16:31:20.502916,-4,-2,-4,48,-1,3,-3,5
16:31:20.509915,3,-4,-8,12,-2,-4,-4,10
16:31:20.525899,-10,-2,2,18,2,0,9,-11
16:31:20.532898,-3,-3,-1,23,66,2,0,3
16:31:20.547889,-4,-1,-3,8,-23,-15,-4,-6
16:31:20.548885,-1,-1,-2,4,5,2,-1,-1
16:31:20.562876,-1,0,0,6,3,0,-2,-4
16:31:20.570871,1,0,0,-2,-10,-6,-13,0
16:31:20.585862,-4,-1,0,0,-3,2,-11,-2
16:31:20.592861,-2,-2,-1,0,-6,-1,4,-2
16:31:20.607852,-2,-1,-1,-2,-3,-3,-6,-1
16:31:20.608851,-1,-1,0,3,-2,-3,-4,-5
16:31:20.622842,-4,-4,-1,-6,0,-7,-20,-7
16:31:20.630834,-3,3,0,2,4,4,4,-2
16:31:20.645825,5,-3,-1,-5,0,7,6,0
16:31:20.652824,-3,-2,-1,-3,-2,-4,-1,-7
16:31:20.667815,-2,-1,-1,1,1,6,-8,-7
16:31:20.668811,-3,1,-1,-4,-7,-5,1,6
16:31:20.682806,-4,-2,0,-2,-1,5,1,4
16:31:20.690797,-1,2,0,0,-1,-7,-2,-1
16:31:20.712787,-4,-5,0,0,-2,-4,-2,-4
16:31:20.713783,2,1,-1,3,4,3,1,4
16:31:20.727778,4,1,1,-2,4,10,12,23
16:31:20.728776,2,-2,-3,-3,-1,-5,0,4
16:31:20.742767,-3,-3,-1,-3,-7,-7,-4,-5
16:31:20.750763,-9,1,-2,-1,3,4,-8,-6
16:31:20.765755,2,-2,-2,-3,0,7,6,-3
16:31:20.772750,7,-1,1,0,4,9,13,15
16:31:20.795733,-2,-1,1,-1,2,3,4,-5
16:31:20.795733,-3,-1,-1,1,-2,-6,-9,-7
16:31:20.802730,-3,-3,-4,-1,-2,-2,-3,-3
16:31:20.810727,0,-3,-2,-1,-3,0,0,-2
16:31:20.825715,-6,-3,0,-3,0,-5,-7,-12
16:31:20.832712,-1,-3,-2,-3,-4,0,-6,2
16:31:20.847704,4,1,-2,3,5,1,4,4
16:31:20.848701,4,0,-2,-3,-1,9,5,12
16:31:20.862692,-2,2,-2,-4,0,1,-5,-6
16:31:20.870687,0,2,0,0,1,0,6,-1
16:31:20.885681,-2,-3,-1,1,-1,-1,-3,-1
16:31:20.900672,0,0,0,0,1,0,-3,-1
16:31:20.907667,0,-5,-1,-1,-4,-7,-6,0
16:31:20.908666,5,2,3,0,1,3,18,21
16:31:20.922655,-2,0,1,3,1,-6,-12,-9
16:31:20.930653,1,1,2,2,0,-5,-3,-1
16:31:20.945641,-6,0,-3,-5,-2,-5,-18,-5
16:31:20.952636,0,-1,-3,0,0,3,6,2
16:31:20.967629,-4,1,-1,-3,-4,-2,-2,-3
16:31:20.968627,-2,0,-1,1,1,1,0,1
16:31:20.982621,2,1,-2,-3,-3,-4,-2,-1
16:31:20.990616,1,-1,-2,0,-3,-1,-4,-4
16:31:21.005607,-1,-3,-1,0,-3,0,1,2
16:31:21.013599,-3,0,-2,-4,0,0,1,4
16:31:21.027592,-1,-4,1,-1,-5,-2,0,-2
16:31:21.028590,2,1,-1,0,-1,-1,-1,2
16:31:21.042581,2,-2,2,-1,1,-2,1,2
16:31:21.057572,-2,1,-2,0,0,-1,1,0
16:31:21.065570,-1,-2,0,-1,-1,-1,0,-3
16:31:21.073564,-2,-3,-2,1,-1,3,2,-1
16:31:21.088556,1,-1,0,-2,2,-2,-21,-5
16:31:21.103545,-7,-3,-2,-4,-3,1,9,1
16:31:21.110539,2,0,-3,-3,-1,2,2,-4
16:31:21.111540,-1,-3,-5,1,4,8,8,4
16:31:21.125533,-1,-4,-1,-3,1,0,1,0
16:31:21.133527,-3,0,1,1,-1,0,2,-3
16:31:21.148519,-3,0,-2,0,-1,-4,-5,-2
16:31:21.155512,1,-2,-2,-2,-5,-4,-2,0
16:31:21.170505,0,0,0,0,1,1,-2,0
16:31:21.171503,-1,0,-2,-1,-3,-7,1,14
16:31:21.185493,-5,-3,-4,-2,0,-3,-12,-1
16:31:21.192492,-2,-1,0,-1,-2,-2,-1,-3
16:31:21.208482,0,0,1,-1,-2,-3,1,-4
16:31:21.215478,0,-1,-1,-3,-3,1,-1,-2
16:31:21.230469,0,-5,2,0,3,0,-2,0
16:31:21.231471,-6,0,-3,-1,-3,-3,0,-4
16:31:21.245456,7,-2,-2,1,4,0,13,2
16:31:21.253455,5,1,1,3,9,1,-5,9
16:31:21.268442,0,0,-2,-1,-2,2,9,-1
16:31:21.275441,-2,-1,-2,-5,-5,-8,-9,-2
16:31:21.290432,-4,-3,-1,-1,-2,-5,0,-4
16:31:21.291431,-3,-2,1,-1,-4,-7,6,-5
16:31:21.305422,-1,-1,3,3,0,-6,-7,-3
16:31:21.313414,4,-1,-1,0,-2,1,-1,-2
16:31:21.328405,-3,1,-1,-1,-2,1,-3,-3
16:31:21.335404,0,-5,-1,-1,1,-1,0,-1
16:31:21.350395,-8,-1,0,-1,0,3,7,-3
16:31:21.351395,-4,-2,-4,-3,-6,-4,-12,-9
16:31:21.365386,0,-1,-4,-1,-4,-1,-2,1
16:31:21.373381,-5,-4,1,0,0,6,11,-4
16:31:21.388369,-7,-2,-4,1,-3,-1,-8,-4
16:31:21.395367,0,3,0,0,-3,-2,-1,1
16:31:21.410358,-4,0,-1,0,-3,0,-1,-10
16:31:21.411355,13,10,10,6,10,15,17,24
16:31:21.425348,-5,0,-2,-1,-1,-6,-7,-7
16:31:21.440339,6,-1,-4,-3,1,3,-4,-1
16:31:21.449334,0,1,-2,0,1,3,-6,1
16:31:21.455330,-5,-1,-3,-2,2,-2,-2,-2
16:31:21.470321,4,0,-1,0,-4,2,-2,5
16:31:21.471319,1,0,-1,1,-2,-3,-1,2
16:31:21.485311,-4,-3,0,0,-1,2,-3,-2
16:31:21.500302,11,1,-1,1,3,3,2,7
16:31:21.508295,2,2,1,3,11,10,-14,4
16:31:21.515302,0,-2,-1,-1,-1,0,6,8
16:31:21.530284,-1,-1,3,1,5,6,10,-1
16:31:21.531281,-3,-1,-2,-1,-4,-1,-1,0
16:31:21.545274,-6,-2,0,-1,-1,-3,7,-2
16:31:21.553270,-3,3,0,1,-4,-3,-2,1
16:31:21.568261,-3,-3,-4,-5,-6,0,-2,-5
16:31:21.575253,0,0,0,-2,2,-1,1,0
16:31:21.590247,-3,-1,0,-2,0,-1,12,-1
16:31:21.591244,5,-4,-2,-2,-2,-8,-12,4
16:31:21.605236,-2,-1,-1,-3,-5,-5,-2,-1
16:31:21.613233,7,1,2,2,2,6,21,24
16:31:21.628223,-4,-4,-1,-1,2,1,-5,-3
16:31:21.635218,-2,-3,-2,1,0,-3,-4,-3
16:31:21.650210,0,-1,1,1,2,-1,-9,-2
16:31:21.651209,-1,1,0,-2,0,0,-1,0
16:31:21.666197,0,0,1,1,2,3,6,3
16:31:21.673196,9,-3,-1,1,-3,0,1,0
16:31:21.688187,10,2,5,3,1,-6,-10,0
16:31:21.695181,0,-2,-2,-1,-1,0,1,3
16:31:21.710173,2,0,2,1,2,3,3,4
16:31:21.711172,-6,-3,-2,-3,0,-4,-6,-5
16:31:21.733159,-3,0,-1,-2,0,-5,-11,1
16:31:21.734158,0,-1,-1,-3,-4,-5,0,1
16:31:21.748150,2,-5,-3,-3,1,6,3,9
16:31:21.756145,-3,-4,1,-1,-3,-1,0,-2
16:31:21.770134,3,5,-3,1,2,1,2,1
16:31:21.771133,-4,-5,-1,4,1,-5,6,-6
16:31:21.793122,-2,0,-2,-5,-7,-4,-6,1
16:31:21.793122,0,1,-5,-4,-3,-3,2,-2
16:31:21.808113,-1,-1,-1,-4,0,-2,2,0
16:31:21.816107,1,-4,-3,-1,-2,-5,-2,-4
16:31:21.830098,-2,-3,-2,0,0,1,1,-1
16:31:21.831099,-5,-4,-2,-1,2,-1,-4,-1
16:31:21.845088,-1,-1,2,-1,-2,0,-7,-4
16:31:21.853085,2,2,-1,-1,1,-3,4,1
16:31:21.868076,14,0,-2,-1,-3,2,1,0
16:31:21.875069,-5,-3,0,0,8,5,9,-4
16:31:21.890062,1,-2,0,-1,-2,-1,-20,4
16:31:21.891061,-1,-1,-2,-2,-2,3,5,0
16:31:21.906051,-2,-4,-2,-1,-2,0,3,-2
16:31:21.913045,3,-1,-3,-2,-1,0,1,4
16:31:21.936034,-4,-2,-4,-1,-1,-2,-3,-2
16:31:21.936034,-9,-7,-1,-5,0,2,-1,-1
16:31:21.951024,-1,-2,-3,-5,0,-4,2,0
16:31:21.958021,1,-1,-3,-4,-5,-6,-14,-2
16:31:21.966016,-3,-1,0,-3,0,-2,2,3
16:31:21.973008,-3,-1,-3,-5,-1,0,-1,-1
16:31:21.987999,2,5,4,4,5,3,1,-1
16:31:21.994997,0,-3,0,1,-3,-1,-4,-2
16:31:22.009988,0,0,0,-1,0,-3,22,-3
16:31:22.017984,1,-3,-1,-1,-1,-1,-5,3
16:31:22.024979,0,1,1,3,-2,1,0,-1
16:31:22.032975,-3,-5,-3,-2,1,5,7,3
16:31:22.047965,-5,-3,2,-4,-4,-4,-4,-9
16:31:22.055961,-2,2,2,2,2,-2,-2,-2
16:31:22.070948,-2,-3,-2,0,0,0,-1,0
16:31:22.092940,-5,0,-4,0,0,-2,-3,-3
16:31:22.093935,1,1,1,1,1,0,-3,1
16:31:22.093935,-5,0,-3,-4,-1,0,6,0
16:31:22.107928,-1,-1,-2,0,0,-4,-6,-4
16:31:22.122919,-10,-1,-1,-5,-1,9,-5,-7
16:31:22.130915,7,4,3,4,8,6,2,9
16:31:22.137910,-3,-4,-3,1,2,-2,-1,-8
16:31:22.160895,8,1,1,-1,2,2,8,3
16:31:22.160895,-4,-2,-3,0,-6,-4,-5,-4
16:31:22.174887,0,0,0,1,-1,-4,-3,1
16:31:22.175884,-3,0,-2,1,1,-1,-2,-2
16:31:22.190878,2,-3,0,-3,-1,-2,-3,-3
16:31:22.197873,-8,1,2,-4,-2,3,-8,-9
16:31:22.212861,-1,-1,-1,-2,-3,-11,-35,-4
16:31:22.213860,-4,-3,-3,0,-1,-6,-10,-4
16:31:22.227854,7,-1,-1,-2,-1,-3,0,1
16:31:22.235852,-2,0,-3,-1,1,0,6,-2
16:31:22.250837,2,-2,0,1,-2,2,1,2
16:31:22.257836,-3,-2,1,-3,1,2,-3,0
16:31:22.272824,2,-2,-1,0,-1,2,-1,1
16:31:22.273824,-11,-6,-1,-1,-1,-1,-2,-10
16:31:22.287816,3,2,-2,2,3,0,10,5
16:31:22.295810,-3,2,3,2,3,-2,-12,1
16:31:22.310801,-7,-5,0,-2,-5,-12,-32,-6
16:31:22.317799,-2,-4,-3,2,3,4,6,2
16:31:22.332790,2,-2,-2,0,0,-1,3,-4
16:31:22.333787,-3,1,0,-4,-4,-3,-6,-6
16:31:22.347781,-1,-1,-2,-3,1,-2,8,2
16:31:22.355773,-2,-2,-2,-4,-4,-1,3,1
16:31:22.370764,-6,-5,-4,-2,-3,-5,-3,-2
16:31:22.377759,10,-1,1,0,3,0,-10,2
16:31:22.392753,-2,0,-1,-1,-5,-5,-5,-9
16:31:22.393749,2,0,1,-2,0,-2,-4,-1
16:31:22.407744,0,-2,-4,-1,2,7,15,1
16:31:22.415740,8,0,0,-3,1,-1,-8,6
16:31:22.430730,-1,-2,1,2,0,2,3,2
16:31:22.437723,2,4,0,0,4,1,5,3
16:31:22.452716,0,2,1,0,-3,-4,-3,-3
16:31:22.453712,-1,0,0,2,-4,0,1,-4
16:31:22.467704,-3,-2,-3,-5,-3,-5,-4,-2
16:31:22.475702,-4,-5,-2,-1,-2,-3,-6,-5
16:31:22.490693,1,0,1,-1,4,0,1,0
16:31:22.497686,-7,-7,-3,-6,-4,-1,-6,-1
16:31:22.512676,3,-1,-2,1,-2,-2,-2,-3
16:31:22.513676,-5,3,-3,-1,-1,-6,-3,-4
16:31:22.527672,-3,-1,0,-2,-3,-3,-7,-2
16:31:22.535665,-1,-1,0,-3,1,-1,1,4
16:31:22.550656,0,0,2,1,4,1,1,0
16:31:22.557652,-5,-1,-4,0,-1,-1,1,-3
16:31:22.572642,-2,-3,0,-2,-3,2,-1,0
16:31:22.573641,-5,-2,-2,-2,-2,-1,-1,-3
16:31:22.588629,-1,3,0,-5,-5,-1,10,7
16:31:22.595627,-1,-1,-1,-2,0,-1,-3,-5
16:31:22.610619,0,0,-1,0,-3,5,-3,-3
16:31:22.617614,-8,-3,0,0,-1,0,-6,-5
16:31:22.632603,-2,0,0,0,-1,-2,1,-1
16:31:22.633603,-2,-1,-2,-3,0,-2,4,-2
16:31:22.648597,-1,1,-2,-3,-1,1,0,3
16:31:22.655589,-1,-4,1,1,2,2,7,3
16:31:22.670582,-3,-2,-3,0,-5,-6,-28,-4
16:31:22.677580,-2,-6,0,-5,-1,2,2,-4
16:31:22.700563,-2,-1,-6,-10,1,-1,-4,-3
16:31:22.701563,-2,-3,-14,-12,5,2,-4,-7
16:31:22.707559,-11,-9,0,5,-2,-8,-12,-3
16:31:22.715554,-3,0,0,7,-6,-6,-1,-4
16:31:22.737538,10,0,3,1,3,3,-7,10
16:31:22.738539,-5,-3,-4,-2,0,3,0,-5
16:31:22.753531,3,2,2,4,3,1,-3,6
16:31:22.753531,-1,-1,0,2,0,1,-4,0
16:31:22.775517,-3,-4,1,-2,0,-1,2,-3
16:31:22.776514,-1,-3,-5,-1,1,-3,-22,4
16:31:22.790509,-3,2,3,-5,-5,-5,-3,-5
16:31:22.798501,-2,-1,-2,3,1,-1,5,1
16:31:22.812494,-2,-3,-1,-1,3,1,8,-1
16:31:22.813491,-2,-2,-3,-5,-5,-6,-6,6
16:31:22.828482,-6,-5,1,-1,1,-2,3,-5
16:31:22.835480,0,0,1,-1,2,1,-1,-3
16:31:22.850482,-3,0,-3,0,-1,0,-1,-2
16:31:22.858464,-4,-4,-1,-2,-1,0,1,-3
16:31:22.873455,1,1,0,-2,-2,0,-3,-4
16:31:22.873455,-4,-3,-5,-3,-4,0,0,-4
16:31:22.888448,-1,-2,0,0,0,1,-2,1
16:31:22.903436,-6,-1,-1,-3,-1,-8,-6,-2
16:31:22.910431,2,-1,0,3,1,6,-6,0
16:31:22.925425,1,0,-1,1,1,0,7,2
16:31:22.932418,-2,-2,-3,-3,-1,-2,-9,-7
16:31:22.933419,-1,-2,-1,-1,1,1,1,-2
16:31:22.956404,-3,-1,0,-2,-3,-1,-7,-2
16:31:22.957405,10,-1,0,1,8,7,12,12
16:31:22.978390,0,-1,2,3,5,-1,1,8
16:31:22.978390,-3,0,0,-1,1,-1,0,2
16:31:22.993383,-1,-5,1,-1,-4,-5,-5,-2
16:31:23.000379,-2,1,0,-1,1,7,11,0
16:31:23.008374,1,-3,1,4,8,2,-7,1
16:31:23.015369,-6,-4,-2,-6,-3,5,2,-9
16:31:23.030358,2,3,2,10,13,17,37,4
16:31:23.038352,9,1,1,9,27,-3,15,12
16:31:23.053346,5,-2,1,-5,-3,0,-4,-5
16:31:23.060342,-1,-1,-4,-2,-1,0,-2,1
16:31:23.075333,-5,4,-1,0,-4,-1,-2,1
16:31:23.076329,-2,-3,-1,-1,3,-1,-7,-1
16:31:23.090321,-3,-2,-5,-1,1,-5,-2,-2
16:31:23.098320,-5,-2,0,1,-1,-1,20,1
16:31:23.113310,2,1,1,0,0,2,2,6
16:31:23.120304,-5,-1,-3,0,-1,-6,-4,-10
16:31:23.135296,-1,0,1,3,2,-1,-1,1
16:31:23.136295,-1,0,-1,0,-3,1,-3,-1
16:31:23.158279,11,1,-2,0,2,5,-1,1
16:31:23.158279,-1,0,1,1,-2,1,1,2
16:31:23.173273,1,2,1,-2,3,6,8,3
16:31:23.180269,0,-3,-3,-1,2,-14,-36,1
16:31:23.195259,3,2,1,1,-1,1,7,-1
16:31:23.196257,0,-2,-1,-3,-2,-1,5,-2
16:31:23.210247,1,-2,2,1,0,-1,1,-2
16:31:23.218247,3,0,1,-1,3,1,4,5
16:31:23.233236,-1,-2,-3,0,-3,-1,-3,-3
16:31:23.240229,-3,-1,-2,-1,0,0,1,2
16:31:23.255221,6,-1,-3,-1,-2,1,-15,4
16:31:23.256219,8,0,1,0,1,0,-2,1
16:31:23.270210,-2,-2,-2,-1,-6,-4,17,2
16:31:23.278205,-5,-2,-1,0,-4,0,-4,-3
16:31:23.293199,-3,-1,-1,-2,1,-2,0,-2
16:31:23.300192,-3,-2,-1,4,6,4,9,-2
16:31:23.315186,0,-1,-1,2,-4,-2,-10,-7
16:31:23.316185,0,0,-1,0,-1,-3,2,-3
16:31:23.330173,0,-3,-2,-1,2,-5,-5,0
16:31:23.338171,-4,0,-1,0,0,3,3,-4
16:31:23.353159,0,-1,1,1,-3,-3,-2,-1
16:31:23.360155,0,-2,-1,1,3,13,61,9
16:31:23.375146,6,7,0,1,6,8,1,3
16:31:23.376145,-2,1,0,-1,-6,-2,2,-7
16:31:23.391137,-1,-1,0,-3,0,-3,-13,-5
16:31:23.406129,-2,-1,1,0,-3,0,6,2
16:31:23.413123,-1,-1,-3,-4,0,0,5,4
16:31:23.420120,0,2,1,-1,-1,1,3,-2
16:31:23.435111,0,1,-3,-1,0,-3,-5,-1
16:31:23.436110,-2,-2,0,0,1,1,-5,-3
16:31:23.451099,0,-3,-3,-2,-2,-2,-4,3
16:31:23.458097,12,0,-3,-3,-1,2,-8,5
16:31:23.473088,-4,-4,-3,-2,4,-2,5,0
16:31:23.481083,-3,-4,-2,-5,-1,0,-3,-4
16:31:23.503070,0,-3,-1,-1,-6,-7,-6,-7
16:31:23.504069,-3,2,0,-2,-2,-4,-13,2
16:31:23.510066,-1,0,-1,-1,-1,-3,-7,5
16:31:23.518060,-1,0,-2,-6,-1,2,-5,1
16:31:23.541043,4,1,0,3,2,0,1,-6
16:31:23.541043,-1,-1,1,3,1,0,-2,0
16:31:23.556037,1,1,0,1,-1,0,-1,-1
16:31:23.556037,-1,2,0,0,1,-1,10,-1
16:31:23.571028,-4,-4,-5,-3,0,6,8,-3
16:31:23.578023,3,2,-1,1,-1,-4,-4,-2
16:31:23.593014,3,2,3,1,-1,2,9,15
16:31:23.601008,-4,-2,2,-1,2,-2,-6,-1
16:31:23.615997,-1,3,-3,-1,-4,-2,2,3
16:31:23.615997,1,0,1,3,-1,-2,-2,-4
16:31:23.630988,-1,0,-1,-3,-1,-4,-3,-2
16:31:23.637987,-1,1,-1,1,1,3,4,3
16:31:23.652977,-6,-2,0,1,1,-4,-3,-4
16:31:23.659972,-3,-5,-2,-1,1,-3,4,1
16:31:23.675963,-3,-2,1,0,-1,-1,-18,-3
16:31:23.675963,4,-3,0,0,1,-1,3,2
16:31:23.690951,0,0,0,0,-3,-2,-4,-4
16:31:23.697950,5,3,-3,0,-2,-4,-2,0
16:31:23.712941,-2,-1,0,0,-1,-1,-8,-7
16:31:23.720935,-4,1,-1,0,-1,-8,-13,-3
16:31:23.735923,0,-1,-2,-1,1,8,3,1
16:31:23.735923,-5,-2,0,0,0,-2,-8,-1
16:31:23.757912,2,1,0,0,0,5,3,2
16:31:23.758912,2,-1,-2,1,-3,-8,-2,-4
16:31:23.772903,5,-1,1,1,-4,-7,-12,-1
16:31:23.780895,-6,-1,-3,-3,-2,0,2,-3
16:31:23.795886,-3,-3,-2,-3,-4,-2,-6,-3
16:31:23.802885,-1,-3,0,0,-3,-2,3,-1
16:31:23.810878,-7,-2,-1,-2,-3,-12,-16,-4
16:31:23.817876,3,0,1,-1,3,2,6,7
16:31:23.832866,-2,-5,-1,0,-1,-1,-1,-6
16:31:23.847856,1,2,1,4,2,-1,-6,2
16:31:23.855850,-8,-4,-3,-4,-4,-6,-11,-6
16:31:23.862845,-4,-4,-3,-3,-1,0,-2,-6
16:31:23.870841,-1,-3,-2,-2,-1,-3,-2,1
16:31:23.885834,-1,-1,-2,-2,1,-3,1,-3
16:31:23.892829,-1,-2,-2,1,0,1,-9,-3
16:31:23.900824,4,4,1,1,6,2,6,7
16:31:23.915816,-1,-3,-3,-4,1,1,-4,1
16:31:23.922810,-2,-1,-2,-1,-1,-2,-1,3
16:31:23.930806,-2,0,1,-1,-1,0,-2,-1
16:31:23.937800,-1,-1,-1,-3,3,-1,-2,0
16:31:23.952789,-1,0,-1,-1,-1,-4,0,2
16:31:23.960788,0,1,-5,-1,-3,12,5,4
16:31:23.975779,-2,-1,0,0,-1,-2,4,4
16:31:23.982774,1,2,2,5,4,-5,0,3
16:31:23.997765,1,1,-5,-2,0,-3,2,-1
16:31:23.998762,-1,-1,-5,2,8,2,3,2
16:31:24.012756,2,-1,-1,-4,-5,2,3,2
16:31:24.020751,3,0,0,1,4,-8,-5,10
16:31:24.035742,-9,-4,-3,-1,-2,-1,6,0
16:31:24.042734,-5,1,1,0,-1,-2,-5,-4
16:31:24.065723,1,3,2,3,1,1,3,2
16:31:24.066723,0,2,-2,-3,-4,-6,-14,1
16:31:24.080711,-2,1,-3,-2,0,-1,8,-2
16:31:24.081711,-3,-2,-1,-3,2,-1,10,1
16:31:24.095703,-1,-6,-3,-4,-5,3,6,1
16:31:24.102698,-1,0,4,-1,1,5,0,2
16:31:24.125683,6,-1,-2,0,-3,-5,-6,-3
16:31:24.125683,-6,0,0,-1,1,4,0,12
16:31:24.133681,-1,-1,-1,0,-4,-2,3,-3
16:31:24.140674,-1,1,-2,1,-3,1,4,-3
16:31:24.155668,1,-4,-1,0,0,-3,-4,2
16:31:24.163663,-4,-1,-1,1,4,0,6,3
16:31:24.177654,0,0,-3,-2,1,1,15,6
16:31:24.178654,-4,-3,-3,-4,0,-8,-9,-6
16:31:24.192642,2,0,1,2,4,1,1,1
16:31:24.200640,-6,-4,-1,-5,-3,2,-3,-3
16:31:24.215631,0,0,-2,-2,-2,-4,8,-4
16:31:24.223627,2,0,3,3,-2,-1,1,0
16:31:24.237616,1,-2,-2,-1,-3,4,-2,-2
16:31:24.238614,-1,-5,-5,-4,0,-3,-2,-4
16:31:24.253606,1,-2,-2,2,-2,-1,-3,0
16:31:24.260603,-1,0,-3,0,-3,-7,-17,-1
16:31:24.275594,-3,-5,-3,-2,-2,0,4,5
16:31:24.283590,2,-1,0,5,3,1,-2,2
16:31:24.297577,-1,2,-2,-2,-4,-4,-1,1
16:31:24.298579,-1,1,-3,0,3,11,7,-3
16:31:24.313567,-1,-4,-3,-1,-2,-1,-4,-4
16:31:24.328558,-7,1,0,-2,1,1,1,0
16:31:24.343550,-2,2,0,0,-1,2,1,-4
16:31:24.343550,-1,0,-2,-1,0,0,3,0
16:31:24.357541,-1,-2,-2,-2,-2,-4,-11,-3
16:31:24.358542,-7,-5,-3,-1,-1,0,-5,-9
16:31:24.373533,-16,-5,-5,-5,-6,-5,-4,-1
16:31:24.380530,-3,0,1,-1,1,3,0,-1
16:31:24.395520,-1,-3,-2,-1,-4,2,-4,-3
16:31:24.403516,-1,-1,-3,-2,0,1,-1,3
16:31:24.418504,-2,-3,0,-1,0,1,-1,-1
16:31:24.418504,-2,-4,-1,2,-1,0,1,-1
16:31:24.433494,-1,-3,-3,1,-1,-1,-5,0
16:31:24.440492,-1,-3,-3,-2,3,2,2,3
16:31:24.455483,-3,-3,-2,-1,0,-1,-3,-4
16:31:24.463475,-4,-5,-2,-1,2,-1,-2,1
16:31:24.478470,-3,3,1,-2,-3,-2,-1,-1
16:31:24.478470,0,0,-3,-4,0,-5,-1,-1
16:31:24.493460,1,2,-2,2,1,-1,0,1
16:31:24.500453,-1,-1,-4,-4,1,0,0,2
16:31:24.515447,2,2,4,4,5,1,3,-1
16:31:24.523441,2,0,-1,-1,3,1,-17,-2
16:31:24.545425,-2,0,1,1,-1,2,9,4
16:31:24.546425,-2,-2,0,-2,1,-1,-7,-11
16:31:24.553422,-2,0,1,-1,3,7,-4,-5
16:31:24.560419,-2,-6,2,-1,-3,-1,-2,1
16:31:24.575409,-1,1,-1,-2,-1,-4,-5,-2
16:31:24.590400,0,1,0,1,7,0,-1,0
16:31:24.598394,-4,-3,-1,-5,0,1,-14,-5
16:31:24.598394,-1,-1,-1,2,-1,7,1,-4
16:31:24.613387,-4,-3,0,-1,1,6,4,1
16:31:24.620382,-7,-1,-1,-3,-1,2,2,-4
16:31:24.635372,-2,-2,2,-1,-3,-5,-2,-5
16:31:24.643366,-1,-2,-4,0,0,-2,0,0
16:31:24.658355,-4,0,1,-4,-1,-4,-8,-5
16:31:24.658355,-2,-4,-1,0,-2,0,16,3
16:31:24.680345,0,-3,0,-2,2,-2,-5,-3
16:31:24.681344,1,3,-4,-2,2,1,4,-3
16:31:24.695332,3,0,-1,2,-3,-1,13,2
16:31:24.703328,-4,-1,0,1,3,-1,-3,-2
16:31:24.718319,14,3,-1,-2,-2,2,6,10
16:31:24.718319,-1,-1,-3,-1,-4,-4,-4,-6
16:31:24.733313,-1,-3,0,0,0,-6,-6,-2
16:31:24.740307,-3,-3,-2,-2,3,4,1,-4
16:31:24.755295,3,-1,-1,-3,-2,-8,3,3
16:31:24.763291,-2,2,2,1,2,-3,-2,-1
16:31:24.778283,0,0,3,0,0,-2,-3,-4
16:31:24.778283,-3,1,-2,-2,-2,1,-1,-1
16:31:24.793275,-2,-1,1,-1,1,-4,0,0
16:31:24.800270,-4,-1,-1,0,-3,-1,-2,-5
16:31:24.815259,-2,-2,0,0,1,-4,0,1
16:31:24.823259,-1,0,1,-2,-2,0,-10,-5
16:31:24.838248,-3,-3,-3,-1,-3,-5,0,-5
16:31:24.845243,1,1,2,1,0,5,6,6
16:31:24.853238,-5,-3,0,-2,-3,-4,1,1
16:31:24.860231,-2,0,-1,-1,-3,0,-3,-2
16:31:24.875222,-2,2,4,4,2,1,0,-10
16:31:24.883220,-6,-2,-5,-1,-3,-5,-2,1
16:31:24.898209,0,1,1,0,0,2,0,0
16:31:24.905203,1,0,-4,-5,0,0,3,3
16:31:24.913198,-2,1,-2,0,-1,-4,-2,1
16:31:24.920195,-5,0,0,-1,-2,-1,-8,2
16:31:24.935185,-4,1,0,-2,-5,-7,1,-2
16:31:24.943180,-2,-1,-3,-3,1,-3,-10,2
16:31:24.958174,-2,3,0,3,1,6,6,3
16:31:24.966167,-2,-3,-5,-1,-2,3,1,-4
16:31:24.980159,-3,-1,-2,1,-4,-5,-4,-4
16:31:24.981157,6,-1,0,3,0,2,-3,5
16:31:24.995149,-2,0,1,0,0,-2,1,-2
16:31:25.003146,0,-1,0,2,2,0,2,2
16:31:25.018137,-2,-3,0,-2,-1,-1,-2,0
16:31:25.025129,3,-6,-4,-4,-3,2,0,-3
16:31:25.040120,-3,-1,0,0,0,-4,-3,1
16:31:25.041120,1,1,-3,-2,-1,2,12,4
16:31:25.055115,-3,-2,1,0,-3,-7,-3,-4
16:31:25.063106,-2,-2,-3,-2,0,2,15,3
16:31:25.078100,-1,0,0,0,2,1,-1,-3
16:31:25.085095,-2,-2,1,-3,0,-2,2,0
16:31:25.101083,-2,-3,-2,-6,-7,-1,-6,-3
16:31:25.101083,-2,-2,-3,-4,2,-3,-4,3
16:31:25.123070,-6,0,-1,0,1,4,3,5
16:31:25.124069,-6,-1,2,-3,-2,0,-2,-5
16:31:25.138063,2,0,-1,0,-1,3,-5,2
16:31:25.145055,-1,-1,0,0,2,-1,-2,0
16:31:25.160047,3,0,-1,3,4,-1,10,1
16:31:25.161049,-2,2,0,-2,1,2,-5,-2
16:31:25.176037,-4,0,1,-1,-1,-1,-2,-3
16:31:25.183036,-5,-3,-2,-3,-4,0,1,0
16:31:25.206025,-2,0,1,-1,2,-3,-3,-2
16:31:25.206025,-3,1,1,-1,-3,-4,1,-1
16:31:25.221009,-2,-2,-2,-1,-4,-3,0,-2
16:31:25.221009,-6,2,-3,-2,-1,1,2,-1
16:31:25.236000,0,-1,-1,-1,-4,-7,-7,-2
16:31:25.242999,-2,-1,-2,-2,-4,-10,-2,-6
16:31:25.265984,-1,3,0,2,3,0,-5,-3
16:31:25.265984,1,0,0,-1,1,-3,0,3
16:31:25.280972,0,-3,1,1,0,-4,1,3
16:31:25.280972,0,1,0,-4,-4,-3,-9,0
16:31:25.295963,-1,0,0,-1,-2,-4,-5,-1
16:31:25.302962,-3,-1,-3,-4,-3,-1,1,-1
16:31:25.317952,-1,1,-1,1,1,0,2,0
16:31:25.325947,-1,-2,-2,-1,0,0,-3,0
16:31:25.340937,-2,1,0,-1,-4,0,-5,-5
16:31:25.340937,1,-3,-1,0,0,2,10,4
16:31:25.355929,1,0,-1,0,2,-1,0,-3
16:31:25.362924,-5,0,1,1,2,-2,-1,4
16:31:25.385908,3,3,0,3,2,-5,5,0
16:31:25.385908,-3,1,0,0,-1,-6,-5,0
16:31:25.400899,1,-1,4,-1,0,1,2,6
16:31:25.400899,-2,-5,0,0,0,-6,4,-5
16:31:25.415892,2,0,0,-3,-5,3,-4,-2
16:31:25.422888,8,0,0,-2,5,3,10,17
16:31:25.437878,-3,-1,-2,0,-3,-3,-1,-2
16:31:25.445870,-2,-3,-2,1,1,2,-7,-2
16:31:25.467860,0,1,0,-3,0,-1,-3,0
16:31:25.468871,-2,-4,-1,-2,1,-1,6,2
16:31:25.482851,2,-3,-1,0,-2,-2,-12,1
16:31:25.483849,-5,-6,-3,-2,-2,-1,-8,-3
16:31:25.497841,1,0,-2,1,-2,0,12,2
16:31:25.512831,-3,1,-1,-4,-2,1,1,2
16:31:25.520825,0,-4,-1,-1,0,-1,-4,-2
16:31:25.520825,-1,-4,-4,-2,0,-1,2,-3
16:31:25.535815,0,-2,-2,-2,-5,-4,-5,0
16:31:25.542814,-2,1,-3,-2,1,1,2,3
16:31:25.557804,3,-2,-1,-3,-3,-2,0,-1
16:31:25.565800,-1,1,-2,1,2,5,8,2
16:31:25.580787,4,-1,1,0,-4,-5,-5,0
16:31:25.580787,0,-1,-3,-2,-2,3,-4,0
16:31:25.595781,-1,-3,-2,-2,-1,1,1,-2
16:31:25.602776,2,-1,-2,1,-4,0,-4,-8
16:31:25.617765,1,0,2,2,2,-4,-4,1
16:31:25.625763,2,1,-1,4,5,4,-1,0
16:31:25.647749,1,-1,-1,-2,-1,-2,-1,-2
16:31:25.648749,-2,-1,1,-6,-4,-5,-2,0
16:31:25.655744,-2,-1,0,1,1,-6,7,5
16:31:25.662737,-2,-4,-1,2,1,0,0,-1
16:31:25.677728,-2,-3,-1,-3,-2,-9,9,-9
16:31:25.685726,-1,1,0,0,2,9,-4,4
16:31:25.707710,-2,-4,-2,-3,0,-3,-2,-3
16:31:25.708709,-1,0,1,0,0,-3,2,-5
16:31:25.715708,-2,0,0,-1,0,-4,-5,-8
16:31:25.722701,-7,-3,-3,1,-3,0,-4,-6
16:31:25.737692,-3,-1,-1,0,-4,-5,-2,-1
16:31:25.745687,-4,0,-1,-1,0,4,1,0
16:31:25.760681,-2,-1,0,-2,-1,-4,-4,-7
16:31:25.760681,-4,-3,-3,2,-1,-4,3,-1
16:31:25.775671,-2,0,-1,0,0,0,-3,-3
16:31:25.790658,0,-4,1,-2,-4,-4,11,-6
16:31:25.798655,3,1,2,4,8,13,3,0
16:31:25.805652,-1,-2,0,1,-1,4,8,3
16:31:25.820643,-2,-2,-2,-2,-3,-5,6,-7
16:31:25.827635,-1,1,-1,-4,-3,0,9,8
16:31:25.835634,-1,-1,-1,2,1,3,2,0
16:31:25.842626,-5,-3,-1,-4,-6,-7,-1,-2
16:31:25.858618,-5,-1,-3,1,-4,-4,-10,-7
16:31:25.865615,0,2,-1,-2,0,-2,-1,0
16:31:25.888598,3,0,-3,-5,-3,2,-15,4
16:31:25.888598,-2,0,1,-3,1,5,2,-2
16:31:25.895594,1,0,0,1,0,-4,7,8
16:31:25.910587,-2,1,-2,-3,-4,-8,-10,-9
16:31:25.918580,-3,0,0,0,-2,1,5,4
16:31:25.925578,-1,0,-1,0,-1,-1,0,-1
16:31:25.940569,0,2,1,-2,-1,0,-1,-3
16:31:25.948567,-2,-1,-4,2,1,-5,5,3
16:31:25.963555,2,2,0,-2,-2,7,6,10
16:31:25.963555,0,-1,-2,-2,0,-4,-2,-5
16:31:25.978543,-1,-1,1,-2,0,-1,0,-6
16:31:25.993542,-2,-1,0,1,4,4,2,11
16:31:26.008527,0,0,-1,0,-1,-4,-4,-3
16:31:26.008527,-4,0,-5,-2,2,2,-1,0
16:31:26.022516,-1,1,0,0,1,1,3,2
16:31:26.023518,1,1,0,1,3,0,-6,2
16:31:26.038505,-3,0,0,-2,1,-1,-2,-3
16:31:26.045504,1,0,0,-1,0,5,7,-3
16:31:26.060495,1,-1,-1,-4,-3,1,-2,-1
16:31:26.068491,0,-4,-3,-5,-7,0,0,3
16:31:26.083478,-4,-1,0,-1,-2,1,0,0
16:31:26.083478,-1,2,-2,1,-1,2,-7,-5
16:31:26.098468,2,-2,0,2,2,2,4,8
16:31:26.105468,0,0,0,0,0,3,-4,-3
16:31:26.120458,2,2,1,-1,-2,-10,1,-4
16:31:26.128453,-1,1,1,0,-1,-2,-8,-8
16:31:26.143441,-6,-1,0,1,1,1,-3,-3
16:31:26.143441,-3,1,2,0,-1,-5,-5,1
16:31:26.158432,-2,-1,-1,-1,-3,2,5,2
16:31:26.165431,1,-2,-1,-2,1,-1,-5,-4
16:31:26.180422,-8,-2,2,-1,0,-3,-1,-3
16:31:26.188417,-2,1,0,-1,-1,-1,-11,-2
16:31:26.203404,-2,0,0,-3,1,3,6,1
16:31:26.203404,-1,1,1,-1,-3,-2,1,0
16:31:26.218398,-2,-3,1,1,0,-2,1,1
16:31:26.225394,1,2,4,3,5,2,-1,5
16:31:26.240385,0,-1,-3,-2,-2,3,0,-1
16:31:26.248379,1,1,1,-4,-7,-9,-8,-2
16:31:26.270366,-3,0,-2,-5,-6,2,15,-6
16:31:26.271365,-5,-5,0,0,3,5,-4,0
16:31:26.278358,-1,3,-3,-1,-3,0,-2,0
16:31:26.285357,-3,-2,1,-1,-3,-5,-4,-6
16:31:26.300347,-4,0,0,0,0,4,5,1
16:31:26.315337,-3,-1,0,0,0,-1,-4,-2
16:31:26.323330,-1,-1,-3,-1,-1,-9,-7,-4
16:31:26.323330,2,0,4,1,0,-1,14,10
16:31:26.338324,0,0,1,-2,-2,0,-5,-3
16:31:26.345317,3,-5,0,0,-4,0,-1,3
16:31:26.368303,2,0,-1,-3,1,0,-3,-3
16:31:26.368303,-2,-2,-3,-1,-2,7,2,-3
16:31:26.383295,-1,2,2,0,3,-1,1,-1
16:31:26.383295,1,-2,0,-2,1,-1,-6,2
16:31:26.398285,2,-1,0,-1,0,-1,3,2
16:31:26.405282,-3,0,2,2,-1,1,2,5
