timestamp,emg1,emg2,emg3,emg4,emg5,emg6,emg7,emg8
18:48:12.492188,2,8,3,2,3,-2,0,0
18:48:12.492188,0,2,1,-2,2,-1,0,3
18:48:12.492188,0,0,3,-2,-2,3,3,0
18:48:12.506179,-1,1,0,0,-3,0,0,0
18:48:12.521170,1,1,-1,1,1,2,0,1
18:48:12.529166,0,0,2,3,-4,-3,-2,1
18:48:12.543158,2,4,1,1,1,-1,1,-1
18:48:12.544156,2,2,0,0,0,1,1,1
18:48:12.566144,-4,-3,-2,-3,0,-1,-3,-1
18:48:12.567142,0,-2,-2,-2,-6,-3,1,-1
18:48:12.581134,-3,2,-2,0,1,0,-1,-2
18:48:12.588152,1,2,1,0,0,0,-2,2
18:48:12.604123,1,-3,-2,-3,-1,-2,-3,-3
18:48:12.604123,0,-2,0,0,0,0,0,-4
18:48:12.626106,-2,-3,-2,-1,0,-2,0,-1
18:48:12.627108,0,0,-1,1,-1,-1,-2,0
18:48:12.641096,-2,-1,-1,0,0,1,-2,1
18:48:12.649094,0,2,1,4,2,2,1,1
18:48:12.664085,-3,2,-1,0,-2,-2,-1,1
18:48:12.665084,-1,0,0,1,-1,-1,0,0
18:48:12.686068,-2,0,1,1,-3,-4,-2,2
18:48:12.687070,-1,2,0,1,0,-2,-4,-4
18:48:12.701059,-3,1,-2,0,-5,-5,-3,-3
18:48:12.709057,-5,-7,-3,2,-4,-4,-3,-3
18:48:12.724048,-3,-5,-3,-4,-5,0,-3,-1
18:48:12.725047,-1,-4,-2,-2,1,-4,-2,0
18:48:12.754030,0,0,0,-3,-1,-2,1,0
18:48:12.755029,1,0,-1,2,0,2,0,-2
18:48:12.761026,-1,-1,-1,-3,-2,0,0,-3
18:48:12.769020,0,1,-3,-1,1,-3,0,0
18:48:12.784011,-3,-1,1,1,1,0,-1,1
18:48:12.785018,2,1,2,2,0,-2,1,0
18:48:12.806995,2,4,-1,0,0,1,-1,-1
18:48:12.806995,1,-4,-1,0,0,2,2,0
18:48:12.820988,-3,-1,-2,-3,0,-5,0,-3
18:48:12.828981,-3,-3,-2,-3,-2,-2,-1,2
18:48:12.843974,-3,0,-1,-1,-1,1,0,-1
18:48:12.844973,0,-2,0,-1,-6,0,-2,0
18:48:12.865958,-2,0,-1,-2,1,0,-2,-1
18:48:12.866958,-3,-2,-3,-3,-1,0,1,-1
18:48:12.880949,0,2,-2,0,0,-1,0,-1
18:48:12.888946,-3,1,-1,1,0,-2,-1,1
18:48:12.903937,0,-4,-1,-2,1,-2,1,1
18:48:12.904933,-2,-4,-3,-1,-1,-4,-1,-2
18:48:12.925920,0,-1,-2,1,-3,-3,-3,1
18:48:12.926919,1,-1,0,2,2,-2,-2,-1
18:48:12.941913,-3,2,-3,0,1,-1,-3,-4
18:48:12.948908,2,0,-1,-2,-3,-1,1,1
18:48:12.963899,1,1,0,0,-2,1,0,1
18:48:12.964896,-2,1,-2,-3,-2,1,-3,0
18:48:12.985886,0,0,-5,0,-3,-1,2,-2
18:48:12.986882,-1,-4,-3,-1,-2,-1,-1,0
18:48:13.001874,0,2,0,-3,0,-3,-1,-2
18:48:13.008871,1,-2,-2,-2,-5,-2,-2,-2
18:48:13.023861,-1,-2,-2,-1,-1,1,-3,0
18:48:13.024861,0,-2,-1,-2,-3,-1,-1,1
18:48:13.046847,2,-1,-1,-1,0,1,0,-4
18:48:13.046847,-2,3,-2,1,-1,0,-2,4
18:48:13.061836,0,-1,0,-1,0,-2,0,-1
18:48:13.068834,-2,-2,-2,0,-1,-2,1,1
18:48:13.083825,-1,2,2,-1,0,1,-4,-5
18:48:13.084822,1,-3,-3,-2,2,-2,0,-1
18:48:13.106808,1,1,1,1,1,1,0,1
18:48:13.106808,-2,1,0,-4,0,-2,1,-4
18:48:13.121799,-1,-3,1,-2,-2,1,0,0
18:48:13.128797,-2,-3,-1,0,0,-1,0,1
18:48:13.143788,-1,-2,1,-1,-1,-1,-1,-4
18:48:13.144787,3,-2,-1,-2,2,2,-1,-1
18:48:13.166770,-2,-2,1,0,-1,-1,0,-2
18:48:13.166770,-1,-2,0,0,-1,0,-2,0
18:48:13.181761,0,-1,-2,-3,1,-1,-2,2
18:48:13.188757,0,0,1,0,-1,-1,1,2
18:48:13.203747,0,1,0,-3,0,-1,-3,-2
18:48:13.204750,-1,0,1,-2,-1,0,0,-2
18:48:13.226733,-3,-2,-1,-1,1,-3,0,1
18:48:13.226733,1,-2,-1,1,-2,0,1,-2
18:48:13.241724,0,0,-2,0,-2,-2,-3,-3
18:48:13.249719,1,0,3,0,0,-2,0,-2
18:48:13.263711,2,-1,0,0,-1,-1,0,3
18:48:13.264712,0,-1,1,0,-3,1,-1,3
18:48:13.286697,3,-3,0,0,-1,1,-1,-1
18:48:13.286697,2,1,0,0,0,-2,0,4
18:48:13.308682,-2,2,0,-1,2,2,-2,1
18:48:13.309682,-1,0,0,-3,-3,0,1,-1
18:48:13.323675,-1,0,-5,-3,0,-2,-1,-2
18:48:13.324675,4,3,-3,3,0,-1,-1,-1
18:48:13.353656,-5,-5,-1,-1,-2,-1,1,-3
18:48:13.354653,-2,-3,-2,-1,-2,0,0,-1
18:48:13.368646,-1,-2,-1,-1,-1,-1,-1,-2
18:48:13.369645,1,0,-1,-3,3,-1,-1,0
18:48:13.383637,-1,-1,0,-2,-1,-1,2,0
18:48:13.384636,4,1,2,2,2,-4,-2,4
18:48:13.406622,0,-2,-2,-3,-3,0,1,0
18:48:13.406622,1,-2,0,0,-4,-1,-1,0
18:48:13.428610,2,0,-1,-3,0,-2,1,4
18:48:13.429609,0,-3,0,0,2,-3,-1,-2
18:48:13.451594,-4,-2,-2,-4,1,-2,-3,-2
18:48:13.452593,2,-1,-3,-4,-2,-4,2,-1
18:48:13.466587,-2,-1,0,-1,-4,-1,2,1
18:48:13.473581,1,0,-2,1,-2,1,2,-1
18:48:13.496569,2,1,-5,-3,-1,-4,-2,-4
18:48:13.497565,0,-3,-1,0,-3,-1,-1,0
18:48:13.511560,0,2,0,0,-1,2,-1,0
18:48:13.511560,2,-2,-1,-2,-2,3,-2,-3
18:48:13.526550,-1,-3,-2,-1,-1,-1,2,0
18:48:13.533544,-3,-3,-1,3,-2,-2,-2,-1
18:48:13.548534,-2,1,-1,-1,1,-4,-2,0
18:48:13.549533,-3,-4,-3,1,-3,3,-1,-2
18:48:13.571523,-3,0,-2,0,-1,-2,-2,-1
18:48:13.572519,-1,1,-3,1,3,-2,-1,-1
18:48:13.586511,2,-4,-3,-6,-3,-2,-3,1
18:48:13.594507,0,-1,0,0,-1,-1,-1,-2
18:48:13.608496,-3,-2,1,0,2,1,1,-1
18:48:13.609496,0,0,-2,-1,-2,-1,-3,-3
18:48:13.631482,-1,-1,0,-4,1,-2,-1,0
18:48:13.631482,-2,0,0,-2,1,1,0,0
18:48:13.646475,-2,-2,-1,2,0,1,-2,-2
18:48:13.653471,0,-1,1,-2,-2,2,0,-2
18:48:13.669459,0,0,0,1,1,-2,-2,-3
18:48:13.669459,-5,-4,-1,-2,-2,1,-3,-5
18:48:13.691447,1,1,-3,-1,-3,-3,-1,-3
18:48:13.691447,3,-2,1,-1,1,-4,0,0
18:48:13.706438,-1,-3,-1,-1,-1,-3,-1,-2
18:48:13.721429,-2,0,-1,1,-3,2,-1,1
18:48:13.728422,-1,-1,-1,-2,1,-1,-2,-2
18:48:13.729422,-2,-2,-1,-1,-3,-1,-4,-2
18:48:13.751408,2,-3,-1,0,-3,0,-1,-1
18:48:13.752407,-4,-2,-3,0,-2,0,-3,-1
18:48:13.774394,-2,-3,0,-2,-3,-1,0,-1
18:48:13.774394,-2,0,-1,-2,-1,0,1,-2
18:48:13.789387,1,3,-1,-5,-3,-2,-2,0
18:48:13.789387,-2,0,-2,-2,-1,0,0,-3
18:48:13.811374,-1,2,-1,-2,-1,-2,0,-1
18:48:13.812370,0,0,0,-2,-2,-1,0,-1
18:48:13.834358,1,0,0,0,-5,-2,1,0
18:48:13.834358,-3,-1,1,1,2,-3,-2,-2
18:48:13.848352,-2,-3,-2,3,2,0,-1,-3
18:48:13.849349,-1,-1,0,0,2,-4,0,-1
18:48:13.871336,-3,-1,-1,-2,-3,-1,-2,-3
18:48:13.872333,-3,-2,0,-1,0,-1,-1,-3
18:48:13.893330,2,0,2,2,1,0,2,1
18:48:13.894320,0,0,-1,0,0,-1,1,0
18:48:13.916309,1,0,-3,-4,-6,-1,-1,-1
18:48:13.917305,-3,1,0,-2,-1,-1,-2,-1
18:48:13.931299,1,-1,0,-1,-2,0,-2,-1
18:48:13.932296,-1,-1,-2,0,-1,0,1,1
18:48:13.953285,-2,-1,2,-2,1,1,-2,-2
18:48:13.954282,-2,-1,-4,-1,1,-2,1,-2
18:48:13.969273,-3,0,-1,-2,-1,0,-1,0
18:48:13.976271,-2,-3,1,1,-2,0,0,-3
18:48:13.991262,2,2,3,2,3,1,-3,5
18:48:13.992259,0,-2,-5,0,-1,0,-1,-1
18:48:14.014245,2,-2,-1,-2,0,2,-1,-1
18:48:14.014245,1,0,0,2,-3,-2,0,-2
18:48:14.029236,1,1,-2,-3,0,-2,-2,-2
18:48:14.029236,3,0,0,-1,-1,-1,3,1
18:48:14.051225,-2,-1,-2,-4,-2,0,0,0
18:48:14.052221,-1,0,1,2,1,1,0,1
18:48:14.074207,0,-3,-1,0,-2,-2,0,3
18:48:14.074207,-1,1,-1,1,-2,-3,1,-3
18:48:14.089201,-2,-1,1,1,-1,1,-3,-2
18:48:14.096196,-1,-3,0,-3,1,1,0,-2
18:48:14.111188,-1,-1,-2,1,-3,-1,-1,-2
18:48:14.112184,-1,0,1,0,-3,2,-2,3
18:48:14.134171,0,3,2,2,2,1,0,4
18:48:14.134171,-1,-1,-3,1,-2,-2,-1,-2
18:48:14.149161,1,-3,-2,-1,-1,-3,0,1
18:48:14.157158,-4,-2,-3,-1,0,-2,-1,-4
18:48:14.171149,0,4,2,0,1,1,2,-2
18:48:14.172147,1,-1,1,-1,-2,0,-2,3
18:48:14.194134,0,-1,1,-1,1,4,-2,1
18:48:14.195135,0,-2,-1,1,-2,0,1,0
18:48:14.209124,-1,2,-3,1,-4,-3,1,0
18:48:14.216120,-3,-2,-3,-1,-2,-2,-2,2
18:48:14.231113,-1,0,-3,-2,-1,1,-1,-3
18:48:14.232113,-3,-4,0,0,2,-3,0,-2
18:48:14.254096,0,-2,-3,0,-3,-1,-1,0
18:48:14.254096,0,-1,1,0,-2,-3,0,-3
18:48:14.269090,-1,-3,-2,0,-3,-2,-1,-3
18:48:14.277083,-1,0,1,0,0,-2,-3,-3
18:48:14.291075,-1,2,-2,2,-5,-2,-4,-3
18:48:14.292073,-3,0,-3,-2,-1,-2,-2,-1
18:48:14.314059,-1,0,-2,-2,-3,-1,-3,-1
18:48:14.315059,0,0,0,-1,0,0,0,-3
18:48:14.329053,2,-1,-1,0,-1,-1,3,0
18:48:14.336053,-2,-1,1,0,-1,-3,0,-2
18:48:14.351036,0,0,-4,-1,-1,-2,-2,2
18:48:14.352038,1,1,1,0,2,-1,1,0
18:48:14.374022,1,-3,-2,-2,-1,-3,-2,0
18:48:14.375023,-3,-3,1,-4,-2,-2,-3,-1
18:48:14.389016,0,-2,-1,-1,-3,1,-1,-1
18:48:14.396010,3,-2,-1,-1,-1,0,-3,-2
18:48:14.410999,-3,-2,2,-3,-3,-1,2,-3
18:48:14.412001,-1,-2,-2,-2,-4,-3,1,-1
18:48:14.433988,-3,-2,-2,-3,-2,3,-1,2
18:48:14.434984,3,-4,0,-1,0,-3,-1,0
18:48:14.455972,3,-1,-3,3,-1,-5,1,-2
18:48:14.456973,-1,-1,1,0,4,0,-1,0
18:48:14.470962,-4,-1,-2,-3,1,-1,-1,0
18:48:14.471964,0,0,-1,-3,0,1,0,-1
18:48:14.493950,-1,0,0,0,0,-3,2,-1
18:48:14.494947,0,1,-2,-6,-5,-3,1,-1
18:48:14.508941,-4,0,0,2,-2,-1,5,5
18:48:14.516935,-1,0,6,0,4,6,5,-1
18:48:14.530924,4,5,-1,-4,-1,0,-2,3
18:48:14.531925,0,-2,-2,-3,-3,0,4,-3
18:48:14.553913,-1,0,0,0,0,0,1,2
18:48:14.554909,-1,1,-1,1,-1,-1,0,0
18:48:14.568904,0,0,1,0,0,-1,0,0
18:48:14.576896,-1,2,0,-2,-2,-2,2,1
18:48:14.590889,2,1,1,0,-1,-1,0,0
18:48:14.591886,0,1,1,-1,1,-1,0,-1
18:48:14.613876,-2,-3,-1,1,-1,0,-1,0
18:48:14.614873,0,1,0,0,1,-1,0,1
18:48:14.628866,-2,-2,1,-1,-2,0,-1,-2
18:48:14.635862,-2,-1,1,-1,0,0,1,1
18:48:14.650854,1,0,1,-3,-2,-4,-1,-1
18:48:14.651849,1,2,-1,1,3,0,0,0
18:48:14.673839,0,2,-1,-1,0,0,1,-1
18:48:14.674838,-1,1,-2,0,-3,-1,-3,0
18:48:14.695825,0,1,-2,2,-2,0,0,1
18:48:14.696822,-3,4,0,-3,-3,-4,2,-3
18:48:14.710815,-1,1,2,-2,1,1,1,0
18:48:14.711813,1,2,-2,-1,-2,-2,-1,-2
18:48:14.733802,-1,-1,-1,-1,-1,-3,0,3
18:48:14.734801,-2,-2,0,0,0,-3,1,1
18:48:14.756784,0,1,-1,-1,-2,-4,1,-1
18:48:14.756784,-1,1,1,-1,0,2,0,0
18:48:14.771775,1,-3,0,-3,0,-3,0,-1
18:48:14.771775,2,-1,-3,0,0,-1,2,-1
18:48:14.793764,-2,-1,-1,0,-1,-3,-1,1
18:48:14.794764,0,-2,-1,0,0,-1,-1,-2
18:48:14.823746,1,-1,-1,-2,-4,-1,0,-1
18:48:14.824742,1,0,0,0,-4,0,1,0
18:48:14.830742,-1,-4,-2,-1,-2,-1,-1,-1
18:48:14.831738,1,0,-4,-2,-1,-2,1,1
18:48:14.861719,-3,-1,-1,0,-1,0,0,-1
18:48:14.861719,0,2,1,0,1,-1,-3,1
18:48:14.875714,-1,-3,-1,-1,1,-3,-3,-2
18:48:14.876713,-1,2,-3,-3,-2,-2,-1,-3
18:48:14.891701,-1,0,1,0,-1,-3,-2,-2
18:48:14.891701,3,-1,2,2,0,-2,2,-3
18:48:14.913690,-2,-2,-2,0,-2,-2,-1,-4
18:48:14.914689,-3,-1,-1,0,-3,0,-3,-4
18:48:14.936673,-1,-3,-2,-1,-2,-1,3,1
18:48:14.936673,-5,3,-1,-1,-2,-2,-1,0
18:48:14.951663,-2,1,-2,0,-2,-1,-4,-1
18:48:14.958660,-1,-3,-2,-3,2,0,-1,1
18:48:14.973653,1,0,2,3,1,0,0,-2
18:48:14.974652,-3,-2,1,-2,-3,-1,-1,-4
18:48:14.996636,-3,-4,2,-2,-1,0,-1,-1
18:48:14.996636,-3,-1,-3,-4,-2,-2,-2,-4
18:48:15.011629,-1,1,-2,0,-1,-1,1,0
18:48:15.018624,0,-2,-2,-3,-1,-1,0,-3
18:48:15.033615,-3,-1,-1,0,-1,-1,-3,0
18:48:15.034615,1,2,-2,0,-1,-2,0,-3
18:48:15.056601,1,-3,-1,-3,-1,-2,-4,-4
18:48:15.056601,1,-2,0,2,-1,0,1,0
18:48:15.071592,-3,-3,-2,-1,-2,-2,-1,-1
18:48:15.078588,-2,-1,0,-2,-1,-1,-2,-4
18:48:15.093577,-3,3,-1,0,0,-1,1,-1
18:48:15.094578,0,0,-2,-4,-1,-2,2,0
18:48:15.116565,-2,-1,-4,-1,-3,0,-3,-2
18:48:15.117562,-1,-4,1,0,2,-1,0,-2
18:48:15.131555,-3,0,-3,2,0,1,0,0
18:48:15.139549,-1,1,1,-1,-1,1,-4,1
18:48:15.153538,-3,2,0,2,1,-1,-4,-3
18:48:15.154537,-3,-3,-1,-2,1,0,2,1
18:48:15.176527,0,2,1,-1,-3,-2,1,-2
18:48:15.177525,-2,-2,1,-2,-2,-1,-1,1
18:48:15.198510,0,-2,-3,-1,-3,-1,-1,1
18:48:15.199513,-1,-3,-1,-1,-1,-1,-2,-3
18:48:15.213504,-3,0,-2,0,1,3,-1,2
18:48:15.214501,-2,-3,-3,-3,-3,0,-1,1
18:48:15.236490,1,-3,-2,-1,-1,-2,-1,0
18:48:15.237486,1,0,2,2,2,-4,3,0
18:48:15.258473,-4,-3,-1,-2,-4,-3,-2,-2
18:48:15.259473,-2,-2,-2,-1,1,0,-3,-4
18:48:15.273464,-3,-1,0,-1,2,-1,1,-1
18:48:15.274467,-1,-2,-1,-3,-1,-4,0,-2
18:48:15.296453,-2,1,0,1,0,0,-1,-4
18:48:15.297451,1,-2,-1,2,14,2,2,0
18:48:15.318436,-2,-1,0,-8,-28,-3,-3,0
18:48:15.319437,1,3,5,9,13,1,1,2
18:48:15.334427,4,2,0,-1,2,-7,0,1
18:48:15.341422,-2,-2,0,-13,-2,-3,-3,-5
18:48:15.356416,2,-3,-2,1,2,4,2,1
18:48:15.357412,-3,-1,1,13,39,2,0,0
18:48:15.378402,5,-1,-3,-10,-69,-11,0,0
18:48:15.379399,-3,-1,6,16,21,-8,-6,-4
18:48:15.393392,-1,3,-2,22,36,13,1,0
18:48:15.394388,-3,2,1,-12,-11,-6,1,2
18:48:15.416378,0,2,5,21,41,-7,0,2
18:48:15.417378,-6,-7,-13,-29,27,-13,-4,-4
18:48:15.438365,-7,-5,24,7,-20,-1,-3,-7
18:48:15.439361,8,8,8,60,2,16,8,7
18:48:15.453356,-4,-8,1,8,76,2,-5,-2
18:48:15.454352,9,9,8,-4,30,8,6,7
18:48:15.476341,-2,-8,-19,-30,-23,-36,-1,-4
18:48:15.477340,-5,10,27,68,127,58,2,-4
18:48:15.499325,9,10,-14,44,54,-22,6,7
18:48:15.499325,-6,-4,13,-2,127,30,-3,-3
18:48:15.514315,11,12,-2,127,127,-57,-5,4
18:48:15.514315,2,-1,62,47,127,26,10,9
18:48:15.536304,34,103,123,127,-128,49,24,20
18:48:15.537304,3,3,39,127,127,127,12,2
18:48:15.559288,-13,-55,-8,127,127,127,3,0
18:48:15.559288,17,-6,-38,-128,127,127,12,29
18:48:15.574277,7,81,123,127,127,33,8,13
18:48:15.574277,11,-56,-128,-128,78,-96,2,1
18:48:15.596267,-2,69,74,-54,-128,46,1,-3
18:48:15.597266,-16,-24,17,127,54,127,-13,-17
18:48:15.619251,10,3,-10,44,127,7,6,22
18:48:15.619251,23,35,-2,-102,-54,-12,3,8
18:48:15.634242,11,36,0,-128,-128,-128,15,8
18:48:15.634242,-22,-60,0,127,127,119,-21,-33
18:48:15.656230,-29,-35,-58,-128,-128,-111,-22,-11
18:48:15.657229,27,9,-13,127,-128,-65,9,9
18:48:15.679212,-4,17,37,-72,-128,127,7,2
18:48:15.679212,5,-7,34,59,-128,-14,5,14
18:48:15.694203,15,9,60,127,127,127,24,5
18:48:15.694203,-19,-87,-73,-128,-128,-63,-4,-1
18:48:15.731183,32,116,127,127,-19,-128,9,13
18:48:15.732179,-24,-113,-105,-90,111,127,16,-6
18:48:15.739178,59,77,75,127,127,127,60,38
18:48:15.739178,40,127,127,-101,-128,-128,7,21
18:48:15.754166,8,-42,-30,44,127,10,14,4
18:48:15.754166,-13,-16,21,-16,-50,-128,7,4
18:48:15.776155,5,-128,-128,127,-128,-128,-59,-6
18:48:15.777155,45,127,127,-29,127,127,37,24
18:48:15.799138,37,127,98,-128,-128,-128,-16,17
18:48:15.799138,11,4,94,127,127,127,64,11
18:48:15.814129,-47,-128,-128,-128,-128,34,21,2
18:48:15.814129,9,36,-32,-128,-128,-128,-41,-7
18:48:15.837114,-62,-78,-42,-128,-128,-128,-32,-41
18:48:15.837114,-25,-128,-102,127,127,127,20,-2
18:48:15.859102,-9,-14,18,127,127,49,15,2
18:48:15.860100,-33,-71,-115,-128,-128,-128,-13,-9
18:48:15.874094,-4,31,64,68,-84,-128,-1,-10
18:48:15.874094,-40,-128,-128,127,127,127,1,-14
18:48:15.896082,12,32,15,127,-31,-128,-7,7
18:48:15.897079,5,6,-24,-128,-128,-128,2,11
18:48:15.926061,-25,-82,-80,74,-128,-1,-5,-12
18:48:15.927061,-15,-36,-31,-57,-128,-128,-8,-6
18:48:15.941053,-27,-53,-55,-128,-128,-117,-29,-21
18:48:15.942052,-58,-128,-126,-1,-128,-88,-19,-24
18:48:15.956042,16,101,113,127,-128,-128,-12,-6
18:48:15.957043,5,36,21,-128,-128,-128,-8,-2
18:48:15.979026,-33,-76,14,127,41,-79,2,-8
18:48:15.980026,-35,-116,-81,127,127,41,-11,-14
18:48:15.994020,-15,-49,-70,19,127,127,29,-4
18:48:15.995016,31,66,55,127,127,127,36,19
18:48:16.016003,17,11,41,99,127,127,9,8
18:48:16.017006,4,1,-47,-128,-128,-112,-12,7
18:48:16.038992,-19,-106,-128,92,127,-73,-6,-12
18:48:16.038992,-15,-41,-11,127,127,127,13,-4
18:48:16.053983,90,127,127,-128,-128,-128,3,37
18:48:16.054979,-56,-73,-47,-128,-128,-128,-40,-16
18:48:16.075967,13,16,43,127,127,127,53,5
18:48:16.076965,-76,-128,-128,127,127,127,40,-20
18:48:16.098955,56,127,96,21,127,127,35,27
18:48:16.099951,54,127,113,127,-4,-31,8,23
18:48:16.113943,-42,-119,-77,-114,-128,-29,-17,-12
18:48:16.114942,-6,-71,-30,127,127,127,17,-1
18:48:16.135928,27,36,15,-77,-128,-128,-14,16
18:48:16.136928,9,-24,-52,-128,-128,-126,-6,6
18:48:16.158914,-59,-110,-76,-72,-97,-128,-39,-33
18:48:16.159916,-4,13,13,53,-128,-128,-16,-6
18:48:16.173909,-14,-53,-39,99,-128,-128,-15,-13
18:48:16.174908,18,52,60,-56,-37,-39,-1,9
18:48:16.195895,12,22,-21,-128,-128,-128,-4,2
18:48:16.196891,-30,-45,-18,110,-128,-82,-6,-14
18:48:16.233872,16,59,52,11,127,127,19,3
18:48:16.234868,7,8,-6,-112,-128,-115,-5,7
18:48:16.240867,-20,-29,-17,-13,98,126,-8,-17
18:48:16.241863,9,22,41,127,86,72,5,3
18:48:16.255857,9,14,-5,-79,25,60,0,3
18:48:16.256857,-1,-1,6,8,-105,-55,-6,1
18:48:16.278843,-2,-13,-26,-43,31,2,-6,0
18:48:16.279843,-7,-14,-29,-40,-23,-15,-7,-2
18:48:16.293834,4,6,0,-71,-128,-29,-3,2
18:48:16.294834,-4,-4,0,15,-10,6,-1,-2
18:48:16.315820,3,-1,-3,-10,-28,-2,1,0
18:48:16.316817,-5,-3,0,-1,-2,-1,-3,-5
18:48:16.338806,-1,2,3,0,5,1,-1,0
18:48:16.339804,4,-1,2,0,-1,-1,5,0
18:48:16.353794,-8,-9,-8,-5,-3,-9,11,6
18:48:16.361792,-40,11,5,2,2,-10,-33,-53
18:48:16.375785,39,43,11,12,22,42,-24,39
18:48:16.376781,-5,-24,-2,1,8,11,66,-15
18:48:16.398769,-39,-8,-12,-14,-16,-12,36,-12
18:48:16.399767,-128,-26,14,7,16,21,127,-54
18:48:16.421751,111,101,-14,-28,-19,28,-128,20
18:48:16.421751,78,11,3,6,4,-55,127,113
18:48:16.436743,-128,-5,-29,-34,-44,-80,-128,-47
18:48:16.436743,111,-9,-39,-40,-36,68,127,47
18:48:16.458732,-128,21,2,-3,-31,-77,127,-128
18:48:16.459731,127,-64,-5,2,0,22,-81,127
18:48:16.481714,-16,-26,-1,-6,-41,-1,-122,-77
18:48:16.481714,21,-41,27,79,73,14,74,-1
18:48:16.496705,108,33,76,127,127,4,-83,-10
18:48:16.496705,34,-6,-62,-128,-128,-70,19,34
18:48:16.518695,-30,-42,56,122,113,94,-8,5
18:48:16.519694,33,46,18,-128,-8,-16,0,10
18:48:16.541680,-18,-6,28,-42,47,14,14,23
18:48:16.541680,127,-30,3,35,82,5,30,39
18:48:16.556668,-35,-4,-35,49,19,-37,-35,25
18:48:16.556668,55,-36,-17,127,127,66,105,-24
18:48:16.578657,2,-5,-19,-45,-92,-56,44,-33
18:48:16.579657,-28,-15,-3,-33,-52,-34,-24,-11
18:48:16.601643,-128,21,15,29,127,27,-56,-88
18:48:16.601643,127,-11,-5,0,90,8,13,91
18:48:16.616631,-128,-35,-4,0,-39,-41,-12,-119
18:48:16.616631,17,33,16,10,-25,-28,-46,127
18:48:16.638620,-10,-5,-3,-46,-40,1,-88,-22
18:48:16.639618,-15,-4,2,41,44,5,-4,-44
18:48:16.661603,8,6,-1,-3,-128,-9,-128,28
18:48:16.661603,8,-6,-4,31,-51,-9,25,42
18:48:16.676594,-25,-9,0,6,26,22,13,-3
18:48:16.677596,-30,10,-9,-26,-17,19,-4,22
18:48:16.698582,23,16,-1,1,-4,-36,14,25
18:48:16.699582,-1,0,6,-27,-30,4,9,8
18:48:16.721566,-11,-9,-2,63,127,20,-1,-9
18:48:16.722565,4,5,17,-5,127,10,-3,3
18:48:16.736559,8,2,-7,-18,-128,-4,7,16
18:48:16.737558,29,-2,-6,-31,18,10,-2,-4
18:48:16.758543,26,4,0,4,-3,7,0,18
18:48:16.759545,-30,-5,-9,12,-4,-21,-15,-27
18:48:16.781532,-3,4,3,16,27,17,-10,-18
18:48:16.781532,1,-4,-1,-43,-98,-5,6,7
18:48:16.796522,-17,-7,-11,16,2,8,0,-14
18:48:16.797522,-18,-12,2,10,20,-15,-6,1
18:48:16.818505,2,1,0,5,-57,-11,6,3
18:48:16.819508,-13,0,-6,10,29,-6,-4,2
18:48:16.841495,-10,-5,-4,-75,-61,1,8,-1
18:48:16.842491,-13,-12,-3,27,-11,-12,-2,-2
18:48:16.856485,12,6,-7,-8,-5,2,11,53
18:48:16.857482,13,3,-2,-1,-6,-5,10,8
18:48:16.878469,8,9,2,-1,12,36,27,21
18:48:16.879471,23,6,5,11,-128,-2,11,20
18:48:16.901457,-7,-3,-3,16,26,3,-6,-3
18:48:16.902455,2,-3,-3,-6,-35,-2,0,2
18:48:16.916448,-3,1,-4,-42,-14,-3,-1,-6
18:48:16.917447,0,-4,0,58,51,1,-2,-1
18:48:16.946429,1,-2,-5,-11,-6,-9,-5,-1
18:48:16.947426,-4,-4,0,7,-1,-8,-3,-4
18:48:16.961420,25,5,-1,8,-4,-7,-6,2
18:48:16.962417,-14,-6,-2,4,6,-1,-4,-4
18:48:16.976411,1,-1,0,-9,-9,1,4,1
18:48:16.977407,-9,-1,-1,16,-44,-4,2,-3
18:48:16.998400,-3,-1,-6,37,72,-6,-6,-6
18:48:16.999395,5,3,3,-6,-122,-11,9,21
18:48:17.029375,17,5,-1,33,33,5,-17,-13
18:48:17.029375,4,8,-2,-14,9,5,-6,-7
18:48:17.036374,1,0,4,-32,-128,-26,-6,-19
18:48:17.037371,-4,-2,-6,11,53,-4,15,17
18:48:17.059358,2,0,1,-5,-37,1,6,3
18:48:17.059358,-1,0,-5,22,-12,-1,-5,-5
18:48:17.081346,-3,-1,2,-25,-18,0,-1,-4
18:48:17.082342,-4,-3,-1,-1,-8,-5,-21,-1
18:48:17.096336,0,-2,-2,1,-3,2,9,5
18:48:17.097336,1,0,-4,-6,-9,0,6,5
18:48:17.119321,-2,1,1,7,-27,-3,-10,-11
18:48:17.119321,-2,-2,-3,34,3,2,-1,0
18:48:17.141309,-1,-1,1,-2,11,-1,5,7
18:48:17.142308,-7,-5,-1,-2,0,-2,-10,-12
18:48:17.156296,-14,-7,0,0,1,-3,-2,-7
18:48:17.157295,1,-3,-2,9,-24,-11,-17,-1
18:48:17.179282,1,1,2,3,-34,-4,3,1
18:48:17.180282,-1,0,0,0,6,-1,-1,-1
18:48:17.201271,3,0,-2,0,1,0,1,-1
18:48:17.202268,-13,-3,-1,-2,-4,-4,-6,-8
18:48:17.216259,-2,-1,1,26,-3,-1,0,-1
18:48:17.217258,-1,1,0,-2,12,-2,-6,-4
18:48:17.239244,6,1,-2,-2,0,-1,-3,3
18:48:17.239244,-7,-5,-2,-5,-11,-8,-5,-4
18:48:17.261234,-1,0,-1,-9,0,2,-1,3
18:48:17.262234,-1,0,0,16,6,-4,-2,-1
18:48:17.276223,-8,-8,-3,-4,38,2,-8,-9
18:48:17.284220,1,-1,-3,-4,7,3,0,1
18:48:17.299209,1,4,1,24,-3,-3,0,-5
18:48:17.299209,-6,-4,-4,-5,61,-4,-7,-5
18:48:17.321196,0,1,-2,-4,9,-2,-1,0
18:48:17.322196,1,1,-4,-16,-9,-9,-12,-8
18:48:17.336185,2,0,-4,3,5,0,4,0
18:48:17.344180,-1,0,-3,-4,3,7,0,-2
18:48:17.359172,-1,-3,-2,9,22,-1,-3,-3
18:48:17.359172,1,2,2,9,16,3,5,4
18:48:17.381156,-3,-5,-4,-7,-5,1,1,0
18:48:17.382156,-1,3,-1,1,-1,2,0,-1
18:48:17.396147,-15,-10,-6,-1,-3,-6,-7,-8
18:48:17.404142,0,-2,0,-1,-4,1,0,1
18:48:17.419136,0,-2,-1,0,0,0,3,-1
18:48:17.419136,-7,-6,-1,-9,-7,-1,-4,-1
18:48:17.441120,-1,-3,0,1,1,-1,2,-1
18:48:17.442122,-1,-3,-1,-7,-8,3,-1,-1
18:48:17.456110,8,6,7,44,23,5,4,7
18:48:17.464108,-3,-5,-4,-8,-5,-2,-5,-2
18:48:17.487093,-2,-3,-4,-4,-21,3,0,0
18:48:17.487093,2,-3,-1,-8,10,4,2,0
18:48:17.501082,-6,-1,-2,4,12,0,-3,-3
18:48:17.502082,1,1,-1,-1,0,0,0,-2
18:48:17.516072,-1,-1,-3,-1,-3,0,1,0
18:48:17.524071,-1,0,-2,-1,0,-3,-1,-2
18:48:17.539062,-1,3,0,0,-4,-1,1,-2
18:48:17.540060,-2,0,-1,-1,0,-2,-1,-3
18:48:17.561046,-2,-1,0,-1,-4,-1,-1,-3
18:48:17.562045,2,1,0,4,3,3,3,4
18:48:17.584034,2,-1,1,2,0,1,-2,2
18:48:17.585032,4,1,0,-1,-1,1,1,-1
18:48:17.599026,-4,-2,-2,-5,1,0,-5,0
18:48:17.600022,0,1,1,0,-1,-2,-1,1
18:48:17.621009,-1,2,2,0,0,-2,0,-1
18:48:17.622009,-1,-2,0,-1,2,0,2,0
18:48:17.643997,0,2,-4,-6,-3,-1,0,-2
18:48:17.644995,-1,0,2,2,1,0,-1,0
18:48:17.658984,-3,2,-1,2,3,-2,4,0
18:48:17.665982,-6,-8,-4,0,-1,-3,-6,-1
18:48:17.681970,-2,-2,0,-3,-4,0,2,-1
18:48:17.688969,4,2,4,3,7,5,4,5
18:48:17.703957,-2,-3,2,0,-2,-1,0,-1
18:48:17.704956,0,-1,0,-2,-2,0,-2,-1
18:48:17.718950,-1,0,-3,-2,-2,1,1,-3
18:48:17.719947,-3,-2,-2,1,2,0,0,1
18:48:17.741935,-1,-1,0,-2,-1,-4,-4,-2
18:48:17.741935,-1,-1,-3,-4,-5,-4,0,-4
18:48:17.763922,-2,0,-2,1,0,-1,-2,-2
18:48:17.764919,-2,2,1,-1,-3,-1,-2,-4
18:48:17.778913,0,-1,0,-1,-1,-2,2,0
18:48:17.786905,-1,-1,-5,-1,-1,-1,1,-2
18:48:17.801896,-1,-1,0,-3,1,-4,-2,1
18:48:17.801896,-2,0,-1,-1,-4,-1,0,-3
18:48:17.823885,1,3,2,0,1,0,0,3
18:48:17.824885,-2,1,-1,-2,-2,2,-1,0
18:48:17.838876,-2,-1,0,-2,-2,-2,-1,-3
18:48:17.846869,-1,-2,1,0,-3,-2,-3,0
18:48:17.860862,-3,-4,0,-1,0,-1,-1,0
18:48:17.861858,0,1,1,3,0,-1,-1,2
18:48:17.883848,1,-2,0,-1,2,-1,-2,-5
18:48:17.884845,-1,-1,-2,-1,-4,2,-1,-2
18:48:17.898838,0,1,0,0,4,2,2,3
18:48:17.906834,-3,-2,2,-2,-4,0,-3,-3
18:48:17.920831,1,-1,0,0,1,-1,0,-3
18:48:17.921823,-3,-4,-2,-3,-1,3,1,0
18:48:17.943811,-2,2,-2,1,-1,-2,-1,0
18:48:17.944810,-3,0,0,1,0,-1,1,-3
18:48:17.958798,8,1,0,-2,-4,2,-1,-1
18:48:17.966796,-5,-2,-4,-3,-6,-3,-4,-2
18:48:17.981785,-4,-1,-4,0,-3,1,-1,-1
18:48:17.981785,0,1,0,-1,-4,-3,0,-2
18:48:18.003774,-1,2,-2,0,-3,2,0,-1
18:48:18.004773,-1,0,-1,0,0,-3,-2,-4
18:48:18.018763,-6,-3,-3,-3,-1,-2,1,-3
18:48:18.026759,0,1,0,-2,1,4,-1,-3
18:48:18.041747,-5,-3,-5,-1,-1,-1,-3,-5
18:48:18.041747,0,3,0,1,-3,2,0,-1
18:48:18.063736,3,1,-1,-2,0,0,-2,0
18:48:18.064736,-3,0,-1,2,-3,0,0,2
18:48:18.078731,-3,-1,-1,0,2,1,0,1
18:48:18.086722,-1,-1,3,2,-2,-1,-3,-2
18:48:18.101710,2,1,-1,0,-3,0,-3,0
18:48:18.101710,0,-3,-4,1,-1,-1,0,0
18:48:18.131691,-3,-4,0,0,-1,-2,0,-1
18:48:18.131691,0,1,0,-4,-3,-5,1,-1
18:48:18.138688,-1,-2,-2,-4,3,-1,1,-5
18:48:18.146685,15,5,-1,-3,1,2,-1,1
18:48:18.161676,-3,-1,-1,0,-3,-1,0,-1
18:48:18.168669,0,1,0,-1,2,-1,0,1
18:48:18.183662,-1,0,-4,-1,-3,0,1,-1
18:48:18.184662,-2,2,-2,-1,-1,-5,-2,0
18:48:18.198650,-1,-2,-2,0,1,1,-2,0
18:48:18.206647,0,-3,-1,-1,-2,-2,0,-2
18:48:18.221639,-3,2,-1,0,-1,1,-2,-1
18:48:18.221639,-2,0,-2,-1,-2,1,0,-2
18:48:18.243621,3,1,2,-1,-2,-1,1,6
18:48:18.244624,-3,-1,-2,-1,-2,2,1,-2
18:48:18.258616,-1,-2,1,0,0,-1,-1,-1
18:48:18.266611,3,0,-1,-2,-2,2,3,0
18:48:18.281601,1,-1,-2,-3,0,-1,-2,0
18:48:18.281601,0,-1,-4,-1,-1,-3,-4,-3
18:48:18.303585,-4,-1,1,-1,0,-1,-1,2
18:48:18.304584,-1,0,0,-2,-1,-1,-3,-1
18:48:18.318580,0,-5,-2,-3,-4,-3,-3,-3
18:48:18.326574,0,1,-1,2,0,0,0,1
18:48:18.341561,-1,0,-2,-4,1,-1,-2,-4
18:48:18.342562,0,0,-1,-4,0,-2,0,0
18:48:18.363548,-4,-2,-2,-1,-3,3,-4,-1
18:48:18.364547,2,3,1,-1,0,-3,-2,-2
18:48:18.379538,-3,0,0,3,-2,2,-1,0
18:48:18.386536,0,-4,1,1,-2,0,1,-2
18:48:18.401527,-2,-4,1,0,3,4,2,5
18:48:18.401527,-1,-1,2,1,-4,-2,1,-1
18:48:18.423511,-5,1,-1,-1,-2,-1,-4,-2
18:48:18.424509,-1,0,-1,-3,-4,-1,1,-1
18:48:18.438508,-1,1,4,-1,-4,-2,-3,-2
18:48:18.446499,-1,-1,0,0,-2,-1,-2,2
18:48:18.461490,0,-2,-2,-2,-1,-1,0,3
18:48:18.461490,-3,-2,-2,-1,-3,0,0,-2
18:48:18.483476,-1,0,1,-1,-1,1,-2,-1
18:48:18.484476,-1,-1,-1,-2,-4,-5,1,-1
18:48:18.506462,0,-2,1,2,-3,0,-1,-1
18:48:18.507460,1,0,1,1,-1,-1,-2,0
18:48:18.521453,-1,-2,0,-3,-1,2,-1,-3
18:48:18.522449,1,-3,0,-1,1,2,0,0
18:48:18.544437,3,0,0,-1,0,-1,-1,0
18:48:18.544437,-1,4,2,2,4,-2,0,1
18:48:18.566425,-5,-3,-2,0,-3,-1,-5,-3
18:48:18.567424,6,2,-2,0,-5,-2,0,1
18:48:18.581416,-2,-3,0,-2,-1,0,-1,0
18:48:18.582411,-4,-1,0,-1,1,-1,-3,-1
18:48:18.603402,2,-4,-1,-3,-2,-2,-3,-1
18:48:18.604400,-3,0,-2,-1,-4,0,-3,-1
18:48:18.634380,-3,-3,-1,-3,-2,1,-2,-2
18:48:18.634380,-2,0,0,1,-1,-2,-2,0
18:48:18.641378,-2,-2,-1,-1,-3,0,-4,0
18:48:18.642375,-2,-2,-2,0,-4,0,0,-1
18:48:18.664361,-3,0,-3,1,-2,-3,1,-5
18:48:18.664361,-2,-2,-2,-1,-1,0,-3,0
18:48:18.686350,0,-4,0,3,-2,-4,-1,-4
18:48:18.687347,-2,1,0,-2,-4,-2,-1,0
18:48:18.701341,-1,0,-4,2,-4,-2,-1,1
18:48:18.702338,0,1,-1,0,1,-1,-1,-4
18:48:18.724324,9,4,2,0,2,1,2,3
18:48:18.724324,-1,-3,-1,0,-2,-1,-1,-2
18:48:18.746313,-1,-1,1,0,-1,-1,0,-2
18:48:18.747312,-1,-1,0,0,-4,0,-3,1
18:48:18.761304,0,2,-1,0,-1,0,-1,-3
18:48:18.762304,-2,-3,1,-2,-3,-1,-1,-4
18:48:18.784286,-2,-1,0,-1,-2,-2,0,-1
18:48:18.784286,1,-1,-1,-1,-2,-1,-2,1
18:48:18.806276,-1,-1,-3,-2,-3,-2,0,1
18:48:18.807275,-4,-1,2,-2,-1,0,-1,-2
18:48:18.821263,0,-4,-4,-3,-1,-2,-1,-1
18:48:18.829262,5,1,1,-4,1,-1,-3,-4
18:48:18.844251,-1,-2,1,-4,0,-1,-2,-4
18:48:18.844251,-2,-2,0,-1,-3,1,-1,-3
18:48:18.866238,-5,-1,-2,-5,-4,0,-1,-5
18:48:18.867238,0,-1,0,-1,-3,0,-1,-3
18:48:18.881229,0,-2,-4,-2,-2,-4,1,0
18:48:18.889225,-2,-2,2,-2,1,-1,-2,0
18:48:18.903213,-2,-2,1,-2,-3,0,-2,0
18:48:18.904212,-1,0,-1,0,-1,-3,2,1
18:48:18.926202,-2,-1,-1,-1,0,2,-3,-2
18:48:18.927201,-2,-4,-2,-3,-5,0,1,1
18:48:18.941191,-3,-3,-1,-1,1,3,0,-2
18:48:18.949184,-1,2,-4,-1,0,-2,1,-2
18:48:18.964178,-2,-1,0,0,-4,0,1,-3
18:48:18.964178,1,0,0,-2,0,0,-2,0
18:48:18.986163,0,0,-1,2,0,0,-3,-1
18:48:18.987164,-2,2,-5,2,0,-1,2,-2
18:48:19.001155,1,-1,-2,-3,-1,2,-2,-1
18:48:19.009150,-4,-3,1,-1,-2,2,-1,-5
18:48:19.024141,-3,-3,-3,-1,0,-1,0,2
18:48:19.024141,0,-5,-1,-3,-2,-3,0,-1
18:48:19.046124,-1,-2,-2,-1,-1,-2,2,0
18:48:19.047124,-1,-2,-3,0,-3,1,1,1
18:48:19.062116,-3,0,0,0,1,-2,-2,0
18:48:19.069113,0,2,-2,1,-3,1,1,0
18:48:19.084104,-1,-3,-1,-3,-2,-5,-1,-1
18:48:19.084104,1,1,2,1,1,-2,-1,-4
18:48:19.106087,0,-1,-3,-3,0,-2,-2,0
18:48:19.107086,-5,-3,-2,-2,4,1,0,-4
18:48:19.121080,-1,-1,-1,0,-1,0,0,1
18:48:19.129076,-1,-1,2,-2,-2,1,1,0
18:48:19.144067,-1,-1,2,-1,0,-1,-5,-3
18:48:19.144067,-1,-1,0,0,-1,-2,2,0
18:48:19.167049,-1,0,0,0,-1,-1,-1,-3
18:48:19.167049,-1,0,-2,-4,1,0,0,0
18:48:19.181043,-2,-4,1,-2,0,-4,-2,-1
18:48:19.189037,-1,-3,-2,-2,0,-1,0,0
18:48:19.204027,-1,-4,-1,0,-3,-1,1,-1
18:48:19.204027,-3,0,-2,-1,-2,0,0,1
18:48:19.234011,2,1,0,0,0,1,-2,-1
18:48:19.235008,0,2,2,1,4,-4,0,1
18:48:19.242004,-3,0,-1,-3,-1,-2,-2,-2
18:48:19.249001,-3,-1,-3,0,-3,-3,-2,-1
18:48:19.263992,2,0,1,0,1,2,0,3
18:48:19.264997,-2,0,3,-1,-1,-3,-1,-2
18:48:19.285978,0,-1,-2,-2,0,-3,-4,0
18:48:19.286976,-2,0,-2,0,-2,-1,0,-1
18:48:19.301969,-1,-1,-1,1,-3,-1,-2,1
18:48:19.308964,-5,-1,-1,-3,-3,0,-4,-2
18:48:19.323955,0,-1,-1,-2,-3,-1,0,1
18:48:19.324952,-3,-1,1,-3,0,-1,0,-2
18:48:19.345945,-4,-3,-3,-1,0,0,-1,1
18:48:19.346938,-2,-1,0,-3,0,1,-1,-2
18:48:19.361930,-1,0,-1,-3,-2,-1,-3,-4
18:48:19.376920,-3,-2,-2,-2,-3,-6,-4,1
18:48:19.383918,-4,-1,2,0,0,1,-1,-3
18:48:19.384918,0,-2,-2,-3,-3,-1,-2,0
18:48:19.405904,-1,-1,-2,-2,-4,-1,-3,1
18:48:19.406901,9,3,-1,-2,-3,-3,1,-3
18:48:19.421891,-1,1,0,0,0,-2,-2,-1
18:48:19.428890,-1,-1,1,1,-2,0,-1,0
18:48:19.443881,-4,-1,-1,2,2,-1,2,0
18:48:19.444880,3,1,-1,-2,-4,-1,-1,-5
18:48:19.465865,2,0,-1,-2,-2,-3,-2,-3
18:48:19.466865,-1,2,-1,-2,0,-1,-2,1
18:48:19.488853,-2,-2,0,-1,-3,0,-1,-1
18:48:19.489851,-1,1,0,3,-1,-4,1,1
18:48:19.503843,-1,1,-3,0,-2,0,-1,-3
18:48:19.504840,0,0,-1,-2,-3,1,1,0
18:48:19.526828,1,2,-1,-1,-2,3,-2,0
18:48:19.526828,-1,-4,-4,-2,2,1,-1,-3
18:48:19.548816,-2,-2,1,-2,-2,0,-3,0
18:48:19.549812,-1,-3,0,0,0,-1,1,-2
18:48:19.563806,0,-1,0,-3,-1,0,1,-1
18:48:19.564804,-2,0,2,0,-2,-1,-2,-3
18:48:19.586792,2,1,0,-1,0,1,-2,2
18:48:19.586792,-1,0,1,0,1,1,2,-1
18:48:19.608778,-1,-1,-1,0,0,-7,-1,-2
18:48:19.609777,-4,-5,-2,-2,-2,-3,1,-3
18:48:19.623769,-1,-1,-1,-2,1,-1,1,0
18:48:19.624768,-4,-5,-4,0,-1,-4,0,-2
18:48:19.646754,-3,-3,0,1,2,1,-3,-3
18:48:19.646754,0,-2,-3,1,0,0,-1,2
18:48:19.668741,1,-3,-1,-1,-2,-3,1,-1
18:48:19.669740,-1,-2,0,-1,-3,-1,0,-4
18:48:19.691723,-3,-3,-2,-1,-2,-1,-2,-1
18:48:19.691723,-2,0,-2,-3,2,-4,-1,-1
18:48:19.706714,-1,-2,0,0,0,1,2,-1
18:48:19.706714,2,-1,0,0,-3,-6,1,-1
18:48:19.728704,1,0,0,0,2,2,-1,-3
18:48:19.729703,-1,-2,-5,-1,-4,-1,1,-3
18:48:19.743691,-9,0,1,-3,-1,-2,-4,-2
18:48:19.751690,0,-1,1,-1,-3,-2,-1,0
18:48:19.766677,-1,0,0,-3,-1,-3,-4,-1
18:48:19.766677,-3,1,-2,-1,1,-2,-2,-2
18:48:19.788666,-2,-3,-1,-2,-1,0,-1,-5
18:48:19.789666,0,2,1,2,1,-1,0,-3
18:48:19.803655,2,-2,0,0,-2,-3,0,2
18:48:19.811653,-3,-1,-3,-1,-3,0,-1,-1
18:48:19.826640,-1,-1,-1,-1,-1,-2,1,-1
18:48:19.827639,-1,1,-1,-2,-2,0,0,-2
18:48:19.848626,0,1,-1,-1,-3,-1,3,2
18:48:19.849630,-6,0,1,-4,-1,0,-2,-2
18:48:19.863617,-3,-1,2,-2,1,-1,0,-1
18:48:19.871615,-1,0,-3,1,2,-2,-3,-2
18:48:19.886606,1,-1,-3,1,-3,0,2,-1
18:48:19.887603,0,-1,0,-1,0,0,0,0
18:48:19.908590,0,-3,-1,0,-4,-1,-1,-3
18:48:19.909591,4,0,0,3,-4,-2,-2,-3
18:48:19.923583,9,-1,-1,-1,-3,-2,0,-1
18:48:19.931578,-1,-1,2,-2,0,-3,-2,-3
18:48:19.946566,1,-1,0,1,1,3,1,0
18:48:19.947565,-2,-2,-2,-1,-2,-1,-1,-2
18:48:19.968553,-2,-3,-1,-2,-2,2,0,1
18:48:19.969552,3,-1,-2,-2,-2,1,0,-1
18:48:19.983546,-1,-1,-2,-3,-2,-3,-5,-4
18:48:19.991541,-1,-1,-1,-1,-3,-3,-2,2
18:48:20.006532,-4,-1,1,-3,-1,1,0,-2
18:48:20.007528,-2,-2,-2,-1,0,-3,-1,0
18:48:20.028514,-4,-4,-2,0,-1,-1,-1,-3
18:48:20.029517,4,0,2,-1,-1,-1,1,2
18:48:20.043512,11,4,2,0,2,1,1,4
18:48:20.051504,-2,-1,-2,1,17,-2,-2,0
18:48:20.066491,-2,-2,-3,0,24,-5,2,-3
18:48:20.067491,1,2,1,-1,-49,-12,-3,2
18:48:20.088480,-3,-4,-5,2,14,-1,-5,-4
18:48:20.089477,-2,0,-1,-3,-21,-5,-1,3
18:48:20.104470,-1,-1,-1,-2,-11,-7,-1,0
18:48:20.111466,2,-2,-2,0,2,0,0,-1
18:48:20.126457,0,-3,0,5,-1,-4,-2,-1
18:48:20.127454,0,-2,1,-2,-1,-3,-1,-3
18:48:20.148444,0,1,-1,0,1,-2,0,1
18:48:20.149443,0,-1,0,-4,0,-3,0,-1
18:48:20.164431,-2,-2,-1,1,1,-1,-2,-1
18:48:20.171429,-4,0,0,1,-1,-3,-1,-2
18:48:20.186420,-5,-4,-4,-5,-1,1,3,-2
18:48:20.187421,-2,-3,0,-4,-8,-3,1,2
18:48:20.208406,-5,-3,-1,-3,5,3,-2,-1
18:48:20.209403,0,-3,0,2,0,-1,0,-1
18:48:20.224394,2,-2,-1,-5,-20,-1,-5,0
18:48:20.231391,0,2,-3,1,5,-1,-3,-3
18:48:20.246383,0,-1,0,3,0,-5,-2,1
18:48:20.247382,0,-1,0,-4,-4,-2,-1,-2
18:48:20.269365,-1,1,0,-3,0,3,-1,-1
18:48:20.269365,-3,-3,-3,-3,-5,-3,0,-3
18:48:20.284356,-1,2,-1,0,1,-2,-5,0
18:48:20.291351,1,0,1,0,3,0,3,1
18:48:20.306346,-3,-2,0,1,-1,1,0,0
18:48:20.307345,-5,-1,-1,-1,-3,-3,-2,1
18:48:20.336327,0,1,-5,0,0,-4,-1,-3
18:48:20.337326,-4,-3,-1,1,1,-2,-1,-2
18:48:20.344319,1,-3,-1,-1,0,-1,1,0
18:48:20.351318,-4,-4,-1,7,25,-2,-1,-3
18:48:20.366308,-4,0,-1,1,1,-1,-3,-2
18:48:20.367308,-1,1,0,1,1,0,0,-3
18:48:20.389293,0,1,1,-7,-5,-5,-1,3
18:48:20.389293,0,-1,-2,5,3,-2,-1,-1
18:48:20.411281,0,1,1,-1,0,-1,-2,1
18:48:20.412280,-3,-2,-3,-2,-1,-3,-1,3
18:48:20.426271,-3,-1,0,-1,-1,-1,2,-1
18:48:20.427271,-3,-2,0,-1,-1,-1,0,-2
18:48:20.449254,1,-1,0,0,0,-2,-3,-2
18:48:20.449254,2,-1,3,1,-1,0,1,1
18:48:20.471243,-2,-2,-1,-1,-1,0,-1,1
18:48:20.472240,-3,-1,2,-3,-4,-3,-3,0
18:48:20.486234,-5,-1,0,1,-4,-2,0,-3
18:48:20.487233,-3,0,2,-1,1,-1,-1,0
18:48:20.509217,-5,-1,-3,-2,-2,-1,-2,-2
18:48:20.509217,-2,-3,-2,-2,0,2,1,-3
18:48:20.531206,-4,-2,2,-1,3,0,0,2
18:48:20.532205,-1,0,-5,-1,-2,-1,-2,1
18:48:20.546197,1,0,-2,-3,1,-3,-2,1
18:48:20.547196,0,0,-1,-1,0,0,1,-1
18:48:20.569179,0,0,0,2,0,-5,-1,-2
18:48:20.569179,-2,0,-4,1,-2,-2,-3,-3
18:48:20.591168,0,-3,0,0,1,-1,-1,0
18:48:20.592170,-1,-3,-1,3,3,0,-1,0
18:48:20.614151,-3,-3,-1,-2,-3,-2,-8,-13
18:48:20.614151,5,2,-1,-1,-3,0,10,30
18:48:20.629142,0,-1,-1,-1,2,-2,-5,-5
18:48:20.630143,3,1,1,2,7,2,3,-2
18:48:20.651129,1,1,0,-1,-2,-1,-1,0
18:48:20.652128,1,0,0,-1,0,-1,-2,-5
18:48:20.674114,-1,-1,0,-2,-1,0,3,0
18:48:20.675115,-3,-4,-2,-4,0,0,0,0
18:48:20.689108,-3,-3,-2,0,-4,2,-3,-2
18:48:20.689108,2,0,0,-3,-1,-2,-2,3
18:48:20.711092,-1,-4,-4,-1,-4,-1,-3,-4
18:48:20.712094,3,-1,2,-1,3,-1,0,2
18:48:20.726082,0,-1,-1,-2,-3,-3,-2,-2
18:48:20.727085,-1,-1,-1,2,-2,-2,-1,-2
18:48:20.749070,1,-2,-4,-2,-4,0,-1,-2
18:48:20.750068,0,0,1,-3,0,-3,-2,-1
18:48:20.771055,-3,1,-2,-3,1,-2,-3,-3
18:48:20.772054,-1,-3,-2,0,-2,-2,-1,-2
18:48:20.786046,-2,2,-1,-2,-1,-1,1,-1
18:48:20.787047,1,-4,-2,-3,-2,-2,-1,0
18:48:20.809034,-2,0,1,-1,-1,1,-2,-3
18:48:20.810030,-1,2,1,1,0,2,1,0
18:48:20.831018,1,0,0,0,-2,1,1,2
18:48:20.832018,-4,3,0,-2,0,-3,-2,-1
18:48:20.846008,0,1,-2,0,3,1,-1,-1
18:48:20.847010,0,-1,-1,-6,-1,-1,-1,-1
18:48:20.868997,-1,2,2,1,5,0,2,0
18:48:20.869993,-1,-4,-1,-2,-5,-3,-3,-1
18:48:20.890980,-2,-1,-4,1,-1,0,0,-2
18:48:20.891980,-1,-2,-1,-4,-4,-1,0,0
18:48:20.905971,-2,-2,0,0,0,-2,-2,0
18:48:20.906972,1,0,0,-1,2,2,1,-1
18:48:20.928960,-3,0,-1,2,-4,-2,-3,-2
18:48:20.929956,0,0,-3,0,2,0,0,-1
18:48:20.950946,2,-3,-1,2,-2,0,-1,0
18:48:20.951944,2,2,-1,0,3,3,1,2
18:48:20.973932,-3,-2,-3,1,-1,-3,-3,-2
18:48:20.974931,-6,-3,1,-2,-4,-3,-1,0
18:48:20.988923,-6,-4,-3,-4,-1,-4,1,-2
18:48:20.989919,-1,0,-4,-3,0,0,-1,-2
18:48:21.010908,0,-1,0,2,2,0,-1,0
18:48:21.011906,-2,-2,0,-3,1,0,-1,-1
18:48:21.025896,-3,-5,-2,1,-2,-4,-2,-1
18:48:21.026896,1,0,-3,-2,-1,0,1,1
18:48:21.048885,-4,-1,0,-1,1,0,-1,-1
18:48:21.049881,-1,-3,0,0,-1,-2,-6,-14
18:48:21.070873,3,-1,-1,1,4,3,8,27
18:48:21.071868,-2,-4,-1,-1,-3,-2,-2,-3
18:48:21.086862,-3,-3,-1,-2,-1,-1,1,-4
18:48:21.093857,-1,0,2,1,-1,-2,-5,-1
18:48:21.108848,-1,0,-4,-1,0,0,-2,-1
18:48:21.109847,1,-2,-1,1,1,0,-2,0
18:48:21.131831,-2,-1,0,1,1,0,-1,-4
18:48:21.131831,2,-1,2,1,2,1,-1,-3
18:48:21.153816,1,1,-3,2,0,-4,0,-2
18:48:21.154816,0,-1,0,1,-1,0,-2,-3
18:48:21.168812,2,0,-3,1,-5,0,0,-2
18:48:21.169810,-1,-2,1,0,3,0,0,-1
18:48:21.191795,1,-3,0,0,0,-4,0,-1
18:48:21.191795,6,-1,-1,-3,-3,0,-2,1
18:48:21.213783,-1,-1,0,-3,-1,-1,0,-3
18:48:21.214782,-3,-1,-1,1,-3,1,-2,-1
18:48:21.228774,2,0,-1,-1,1,1,2,0
18:48:21.229773,0,-2,-1,1,-3,0,0,2
18:48:21.250762,-2,2,-3,0,-2,-1,-1,2
18:48:21.251756,1,3,1,2,4,1,5,0
18:48:21.273746,1,-2,-2,-1,-2,0,-1,2
18:48:21.274745,0,0,-3,0,-1,-1,-1,0
18:48:21.288736,-1,-4,0,-1,-1,-1,-3,-2
18:48:21.289736,-3,0,-3,-3,-4,-1,1,1
18:48:21.311720,0,2,0,-2,1,1,-2,-1
18:48:21.311720,-1,-2,-2,-1,-1,2,-1,-2
18:48:21.333708,1,2,-2,-2,-2,-2,1,-2
18:48:21.334707,-3,-4,-1,-2,-1,-1,-3,-3
18:48:21.349697,1,-4,0,-3,0,0,0,-3
18:48:21.349697,-3,1,-2,-1,-3,-4,-3,-2
18:48:21.371682,2,2,0,-1,-2,-2,-1,1
18:48:21.372681,2,-1,-2,2,2,4,1,-2
18:48:21.393671,0,0,1,0,1,-1,0,-2
18:48:21.394670,-3,-1,-1,1,1,1,0,2
18:48:21.408661,1,1,0,-1,1,-4,-1,-1
18:48:21.409661,-3,-1,-6,1,0,1,-3,0
18:48:21.438642,0,-1,-2,1,-4,-2,-3,-1
18:48:21.439642,8,4,-3,2,-3,-2,-3,2
18:48:21.453633,-1,-1,-1,1,2,1,-4,-2
18:48:21.454633,-3,-2,0,-1,-1,-3,-2,-3
18:48:21.468624,1,-2,0,0,-2,-1,1,-2
18:48:21.469624,-1,-3,0,-2,-1,-3,-3,-7
18:48:21.491611,4,-4,0,-1,-1,0,4,23
18:48:21.491611,-3,-2,-4,-4,-3,1,-4,-4
18:48:21.513594,1,-2,0,-1,-4,-2,-1,-5
18:48:21.514596,-1,-3,2,-1,-5,-2,0,-3
18:48:21.528586,-1,-1,1,-2,-1,3,2,3
18:48:21.529587,8,1,0,-3,1,-3,1,-1
18:48:21.551573,0,-3,-1,-3,1,0,-1,-1
18:48:21.551573,-1,-4,-2,-4,-3,-1,1,1
18:48:21.573559,1,0,-3,-3,0,-2,1,0
18:48:21.574558,-2,-2,-4,1,-2,0,-2,1
18:48:21.588548,5,3,-1,-1,1,-4,0,0
18:48:21.589549,-3,1,-2,-2,0,-1,-1,-1
18:48:21.611536,-1,-1,-2,-2,-1,-1,1,-1
18:48:21.612532,-1,0,0,0,3,0,-1,0
18:48:21.633520,0,-1,0,-1,0,-1,-3,-2
18:48:21.634519,-3,-1,-2,0,1,2,4,5
18:48:21.648511,0,-2,-1,-1,0,-3,-2,1
18:48:21.649512,1,0,-1,-1,0,-1,-2,-1
18:48:21.671499,-2,0,-1,-3,1,1,-2,-1
18:48:21.672495,0,-3,1,1,0,0,-3,-1
18:48:21.693483,-3,-2,-2,1,1,0,0,0
18:48:21.694482,-3,0,-3,-2,-2,0,-2,-1
18:48:21.708475,-1,0,0,-1,-1,1,-2,0
18:48:21.709474,-2,0,1,-2,-4,-1,-3,-4
18:48:21.731462,1,-3,-1,-3,-3,0,-2,1
18:48:21.732458,-1,2,0,0,1,-2,1,1
18:48:21.753448,-3,-2,0,-2,-1,0,2,-3
18:48:21.754447,-4,-1,-1,0,-4,-1,1,-2
18:48:21.768435,0,-1,-1,-5,-1,-2,-1,-4
18:48:21.769436,-3,-3,0,-1,1,-1,1,2
18:48:21.791425,2,-1,-3,3,0,-1,0,4
18:48:21.792424,-1,0,1,1,0,-2,-3,-1
18:48:21.813411,0,-4,-1,-2,-1,-3,2,-2
18:48:21.814407,-2,-1,-3,-1,-5,-1,-1,0
18:48:21.828402,0,0,-1,-1,0,-3,0,-2
18:48:21.829398,1,-4,0,1,-1,-4,-2,-3
18:48:21.851387,-4,-3,-2,-1,-1,-1,-2,-2
18:48:21.852387,-2,-2,-2,-1,2,1,-2,-2
18:48:21.874370,-1,-1,1,1,-3,1,-2,-1
18:48:21.874370,-5,-3,-2,0,-3,-1,-1,-3
18:48:21.896359,7,3,2,-1,-1,0,-3,1
18:48:21.897359,2,5,0,0,1,3,1,4
18:48:21.911350,-3,1,-1,-2,-2,-1,-1,2
18:48:21.912348,-2,-2,2,-1,0,-2,-1,-5
18:48:21.933340,-3,0,-3,0,-3,0,-1,-1
18:48:21.934336,0,1,1,-2,-1,4,0,-3
18:48:21.948326,0,-2,-2,-3,-2,-1,1,0
18:48:21.949323,-2,-1,0,-3,0,0,-2,0
18:48:21.971313,-3,-3,-1,-2,-3,-2,-1,-1
18:48:21.972311,-5,0,-1,-1,0,-2,-1,0
18:48:21.993299,-1,-3,-3,-1,0,1,2,1
18:48:21.994299,2,0,0,-4,0,-2,0,2
18:48:22.008290,-1,1,-1,-2,-3,1,4,1
18:48:22.009289,-3,3,0,2,0,-3,0,3
18:48:22.031275,-2,-1,1,0,0,-3,-1,-1
18:48:22.032273,-1,-2,-1,1,-1,-1,-2,-1
18:48:22.054260,-3,-2,2,2,0,0,0,-2
18:48:22.054260,1,-1,-1,-5,-2,-4,-1,-2
18:48:22.076248,-2,1,1,0,-1,-2,-1,-1
18:48:22.077247,-2,0,0,-1,1,-1,0,0
18:48:22.099233,-3,0,-1,-2,-1,0,-3,-3
18:48:22.099233,-5,0,-1,0,0,-1,0,-2
18:48:22.113224,-4,-2,-1,0,-1,-2,2,-2
18:48:22.114224,-1,-1,-3,-1,1,0,0,-2
18:48:22.136211,-2,1,-1,2,-1,3,2,-1
18:48:22.137210,-2,-3,-4,0,-1,1,1,-3
18:48:22.151199,-1,-1,-2,-2,-1,1,-3,-4
18:48:22.152198,-4,-1,1,-1,-3,-1,1,0
18:48:22.174187,-3,0,1,0,-1,0,-1,-3
18:48:22.174187,0,2,1,1,5,-2,2,1
18:48:22.196173,-4,2,-1,-2,-3,-1,-1,-2
18:48:22.197170,2,1,-1,4,-1,3,2,-1
18:48:22.212162,2,0,1,2,-4,0,-2,-1
18:48:22.212162,-4,-4,-1,-3,-2,0,0,2
18:48:22.234147,0,-1,0,-1,-1,0,-3,-2
18:48:22.234147,-5,0,2,-4,0,-1,-1,-1
18:48:22.256135,0,-2,-2,-3,3,3,-3,0
18:48:22.257135,1,-1,-2,2,-2,-3,-3,-1
18:48:22.271126,2,-1,1,0,0,-1,3,4
18:48:22.272126,-3,0,-2,-1,-3,-2,1,0
18:48:22.294111,1,-1,-3,-2,-2,-1,0,-2
18:48:22.295111,-3,1,-1,0,-2,3,-3,-3
18:48:22.316096,0,-2,0,2,0,-1,-3,1
18:48:22.317098,-4,1,-2,-1,0,0,-3,-1
18:48:22.331086,-6,2,-3,-2,-2,1,0,-2
18:48:22.332089,-1,0,0,-1,-4,-1,0,-1
18:48:22.354076,-5,-3,2,0,2,0,-2,2
18:48:22.355075,0,-2,-3,1,3,-2,-1,0
18:48:22.376060,0,-2,-3,-5,-1,2,1,-1
18:48:22.377061,9,3,0,1,3,-3,0,2
18:48:22.391053,0,1,1,0,-3,-5,-3,-3
18:48:22.392051,-2,0,0,-2,1,0,3,0
18:48:22.414038,0,-1,0,-3,-2,-1,1,0
18:48:22.415035,-3,-1,-1,0,-1,-1,-1,0
18:48:22.436025,0,2,0,0,1,2,1,0
18:48:22.437022,0,1,0,2,2,-2,1,-1
18:48:22.451013,1,5,-1,-1,1,-4,-2,-4
18:48:22.452015,-2,-3,-1,-1,-3,2,0,-1
18:48:22.474001,-1,-1,-1,-1,-2,1,-4,-1
18:48:22.474997,-1,-2,-1,0,-3,-4,-1,-2
