timestamp,emg1,emg2,emg3,emg4,emg5,emg6,emg7,emg8
16:26:44.118053,-3,-1,-1,-1,1,-3,-3,-3
16:26:44.126046,0,0,-1,0,1,0,-1,1
16:26:44.136040,-3,1,1,-2,-1,-1,-1,-3
16:26:44.141036,-2,-1,4,1,1,1,0,0
16:26:44.155028,-1,-3,0,-5,-2,0,-11,-1
16:26:44.163024,-2,3,-3,-1,-3,2,10,0
16:26:44.178014,-1,-2,1,1,-2,-5,-4,-4
16:26:44.178014,-3,-3,-2,-2,2,-1,8,0
16:26:44.193004,1,-1,2,5,6,6,-5,2
16:26:44.201002,-2,-3,-1,-2,0,1,10,11
16:26:44.215991,-2,-4,-1,-4,-1,-1,-3,-3
16:26:44.222986,-1,-1,1,-4,-1,-2,-2,-1
16:26:44.237978,-1,1,2,1,0,3,4,-1
16:26:44.237978,4,3,0,-3,-1,1,1,3
16:26:44.252969,1,-2,-2,-1,1,-2,-1,7
16:26:44.259966,-1,-1,0,0,1,-2,1,-2
16:26:44.274956,1,-3,2,-3,2,2,6,2
16:26:44.282949,-5,-4,0,1,1,-2,2,4
16:26:44.297941,2,0,0,-2,1,6,13,6
16:26:44.297941,0,1,1,0,3,3,0,-2
16:26:44.312931,-1,-3,-2,-1,-3,-3,-4,-2
16:26:44.327922,-2,-2,-3,1,4,8,1,1
16:26:44.334918,-1,0,-4,0,-2,0,0,2
16:26:44.342912,-5,-5,-2,-1,-2,1,3,-2
16:26:44.357903,3,-1,-1,0,-1,-1,1,2
16:26:44.357903,-4,2,0,1,-2,-1,0,-3
16:26:44.372894,2,-4,-1,-1,1,-6,-7,-1
16:26:44.379922,-1,-1,-1,-2,-5,-3,-3,-1
16:26:44.395880,-2,-5,-1,-4,-2,-4,-7,-3
16:26:44.402875,-3,-1,-1,-3,-1,0,10,-2
16:26:44.417867,1,-1,-1,2,0,-1,-2,-2
16:26:44.418865,-3,-1,-2,0,-1,-3,2,-2
16:26:44.432856,-2,-2,-1,0,-2,-1,-1,1
16:26:44.439878,-5,-1,-2,-1,2,0,-2,-7
16:26:44.455841,1,-1,1,1,0,-9,-5,-7
16:26:44.462837,0,-3,-3,-1,0,0,-6,-2
16:26:44.477830,-2,-1,-4,-2,-1,0,2,-1
16:26:44.478827,-2,0,-1,2,1,-4,-1,-5
16:26:44.499818,0,-1,0,-1,1,1,-8,1
16:26:44.500815,-3,-2,-3,-3,-1,-3,-3,-2
16:26:44.515806,3,-1,0,0,0,8,3,1
16:26:44.522800,-4,-1,-1,-3,0,-2,3,2
16:26:44.537793,0,-2,-2,1,-1,1,7,1
16:26:44.538791,2,2,1,-1,-3,-5,-5,0
16:26:44.553782,-2,0,0,-3,0,-1,-3,-1
16:26:44.559782,-3,-2,-3,-1,-2,0,-2,2
16:26:44.575770,0,-2,-1,-3,-1,-2,4,3
16:26:44.582765,-4,-1,-1,-4,-2,-4,-14,-2
16:26:44.597756,6,2,1,2,4,12,13,12
16:26:44.598762,-1,-1,0,-3,-3,-4,-3,-1
16:26:44.612745,-1,-1,0,-2,-2,-2,1,-12
16:26:44.620742,-1,0,0,4,2,-1,-4,3
16:26:44.635733,-1,0,-3,-1,0,0,10,-3
16:26:44.642776,1,-1,0,3,-1,-3,-8,-3
16:26:44.657718,-1,-1,-3,0,0,1,2,0
16:26:44.658717,-4,-2,0,-2,0,-3,0,-1
16:26:44.672709,-2,0,-2,1,-2,-4,1,-2
16:26:44.680705,-4,-1,0,-1,2,-3,-10,-7
16:26:44.695696,0,3,0,1,-1,9,-3,4
16:26:44.702694,-1,-3,-1,-1,0,-1,0,-1
16:26:44.717680,0,0,0,1,0,2,5,2
16:26:44.718680,-1,0,-3,-2,1,-3,0,-1
16:26:44.732672,1,-1,-2,-1,0,2,-1,-1
16:26:44.740668,0,1,2,0,1,-7,-18,-2
16:26:44.755659,-3,-3,0,0,0,0,11,-10
16:26:44.762656,-3,-1,-3,0,-1,0,2,3
16:26:44.777644,-1,-1,1,-1,-3,1,2,-3
16:26:44.778644,2,-3,1,-4,-2,-3,-4,-1
16:26:44.792656,-1,-4,-3,-3,-2,-6,-15,-3
16:26:44.800631,-3,0,-1,0,1,1,-2,0
16:26:44.815623,-2,-1,-4,-2,-3,-1,1,-1
16:26:44.822615,-4,-4,-1,0,1,1,-2,-3
16:26:44.837607,-3,-2,-2,0,-1,-4,-10,-7
16:26:44.838608,0,-2,0,-3,4,5,3,1
16:26:44.852606,1,0,0,-1,-1,-1,-4,-3
16:26:44.860593,-3,0,-2,0,0,0,0,2
16:26:44.875586,-3,0,0,0,-4,-2,6,-2
16:26:44.882582,-4,0,-2,0,4,3,-10,-8
16:26:44.905565,3,2,-2,-2,1,-2,-6,3
16:26:44.905565,1,-3,1,-3,-2,4,4,1
16:26:44.912564,-4,-3,-1,-2,3,-1,-2,-3
16:26:44.920565,-1,-3,-2,1,0,-1,1,2
16:26:44.935546,-3,-1,0,-1,0,2,-1,2
16:26:44.950539,-2,-1,-1,-2,2,2,4,-2
16:26:44.957539,0,-2,1,-1,-3,-6,-10,4
16:26:44.965539,-1,-2,-2,-3,1,-2,0,-4
16:26:44.972527,0,-2,-1,-3,-4,-7,-1,-3
16:26:44.980520,-1,-1,-4,-4,0,-3,4,5
16:26:44.995511,-4,-4,-3,-3,-2,-7,-28,-6
16:26:45.003506,-2,-1,0,0,-1,-2,1,2
16:26:45.017498,-5,1,-3,-3,0,2,-6,-5
16:26:45.025491,-1,1,-1,-1,1,1,10,9
16:26:45.040483,-3,2,0,-3,-3,-3,-2,-9
16:26:45.040483,5,2,-2,0,8,6,-1,5
16:26:45.062540,-1,-1,1,-2,-4,-5,-1,-6
16:26:45.063468,-2,-2,0,-3,-1,-1,1,2
16:26:45.078460,0,3,-3,-1,-2,0,-1,0
16:26:45.085458,-3,-1,-2,-4,1,-3,-2,1
16:26:45.100446,-1,-3,-2,1,-3,-6,-19,-1
16:26:45.101445,0,-1,-1,1,0,3,25,3
16:26:45.116436,-1,-2,1,1,-3,-1,0,3
16:26:45.123438,-2,-2,-3,-2,0,4,2,0
16:26:45.138426,0,-2,-1,1,-1,1,-4,-4
16:26:45.153414,-4,-2,-1,-2,-2,-1,-6,-4
16:26:45.160412,3,2,2,3,10,13,18,5
16:26:45.161411,-1,-4,0,-1,-1,-3,-4,0
16:26:45.183395,-1,-1,-1,0,1,2,-7,-2
16:26:45.183395,-1,-1,0,1,1,-5,-4,-2
16:26:45.198386,2,-2,-1,-2,-2,-5,-2,-4
16:26:45.205384,0,1,-2,2,3,1,-1,-3
16:26:45.220372,2,-1,1,-1,1,1,-6,1
16:26:45.221372,-1,-1,-4,-3,0,-3,2,-3
16:26:45.236362,-3,-1,1,0,-1,0,-1,2
16:26:45.243358,-1,-1,-3,0,1,-3,-8,-1
16:26:45.258352,-4,-3,-1,1,-2,-1,3,1
16:26:45.266344,-5,-1,-2,-2,0,-1,1,-8
16:26:45.280338,3,2,1,-2,1,0,-2,0
16:26:45.281335,-1,-1,-1,-2,-3,-3,-12,-7
16:26:45.295326,0,-3,1,0,3,3,3,4
16:26:45.303324,0,-1,-1,-2,0,-3,-2,0
16:26:45.318315,7,1,2,1,1,-3,7,23
16:26:45.325307,-1,-3,-2,-2,-2,0,9,-4
16:26:45.340301,-4,-4,-1,-2,-4,-6,15,1
16:26:45.341300,-2,1,4,0,0,0,-2,0
16:26:45.356289,0,-3,1,-1,-2,-3,-1,-1
16:26:45.363287,1,0,0,1,2,6,4,2
16:26:45.378278,2,3,1,4,-2,-3,-3,-3
16:26:45.386272,-3,-6,-4,-3,-5,-5,3,-4
16:26:45.408259,4,1,-1,3,2,2,3,4
16:26:45.409259,-2,1,-1,2,2,2,1,0
16:26:45.416252,0,-3,1,1,0,-3,0,-2
16:26:45.423250,-1,-1,2,-2,-2,1,-5,1
16:26:45.438241,-1,0,-2,-1,-3,-6,-1,-3
16:26:45.445234,-1,1,2,2,1,1,0,-2
16:26:45.460226,1,1,-4,-3,-3,0,-2,0
16:26:45.461226,-2,-1,-2,-4,-2,-4,-4,-3
16:26:45.483213,0,1,0,-5,-2,1,-1,-1
16:26:45.484209,2,-2,2,-1,0,-1,1,-2
16:26:45.498204,-1,0,0,2,0,-2,1,1
16:26:45.506199,-1,1,0,3,0,-1,-1,3
16:26:45.520188,0,-3,0,-10,-2,0,0,2
16:26:45.521189,-1,-4,-1,-1,-2,-2,-1,-2
16:26:45.543176,-3,-2,1,-4,2,-3,-1,0
16:26:45.544173,0,-3,-1,1,-1,3,-6,1
16:26:45.558167,-2,0,-4,-2,-3,-3,0,-3
16:26:45.573158,-3,-1,0,-3,1,2,3,-1
16:26:45.588149,1,1,-2,0,-2,-3,-3,1
16:26:45.589145,-1,-1,-1,3,-1,0,-10,-3
16:26:45.595145,1,-2,-2,-2,-7,-11,-25,5
16:26:45.603139,0,-1,-3,0,-1,-1,-8,8
16:26:45.618130,0,-2,-2,0,3,8,13,9
16:26:45.626122,-3,1,2,3,1,-4,1,-6
16:26:45.640114,-4,-3,-3,-1,-2,-2,-4,-8
16:26:45.641115,2,0,1,1,0,7,12,4
16:26:45.656106,0,-2,0,-2,-1,-2,-3,-6
16:26:45.663102,0,-2,-2,-1,-1,0,2,-1
16:26:45.678093,-1,1,1,0,-1,3,2,0
16:26:45.686085,1,-4,0,0,-1,-1,-3,-2
16:26:45.700077,-1,-2,-3,0,-3,1,-5,-2
16:26:45.701078,-3,-1,-1,-1,-1,-11,-11,-1
16:26:45.716067,0,0,-3,0,-4,1,3,-2
16:26:45.723066,-1,-2,0,1,1,3,-6,0
16:26:45.738056,0,-3,-2,-2,-2,1,4,0
16:26:45.753047,-1,1,-1,-3,4,-2,-1,-3
16:26:45.760040,-5,0,-1,-3,-2,0,1,-3
16:26:45.761042,3,0,1,6,3,-3,2,3
16:26:45.776032,-2,1,-2,-4,0,-2,-2,0
16:26:45.783029,2,-1,0,3,6,3,1,2
16:26:45.798017,-3,-1,3,8,-3,0,0,-2
16:26:45.806014,0,2,-5,2,2,0,0,0
16:26:45.821005,-1,2,5,9,5,-1,1,-4
16:26:45.828001,-3,-1,-1,7,-2,3,-3,0
16:26:45.835995,0,0,-2,5,3,-1,1,0
16:26:45.842992,-1,-1,1,0,-5,-1,-6,0
16:26:45.857981,-3,0,-7,-11,-5,-1,2,1
16:26:45.865976,-5,-3,-7,2,-12,-10,-6,-5
16:26:45.880968,-2,1,11,37,37,2,1,-2
16:26:45.887963,1,-1,4,17,7,-1,1,-1
16:26:45.895957,6,7,31,48,1,-2,1,3
16:26:45.910950,-2,-3,-10,-26,2,3,-2,-1
16:26:45.917942,1,3,11,16,27,4,2,-1
16:26:45.925938,1,4,5,-16,8,-1,2,2
16:26:45.940932,0,-1,-5,-33,30,5,-2,-3
16:26:45.947929,0,-2,-50,-69,-61,-7,0,0
16:26:45.962918,3,10,58,98,27,8,1,-2
16:26:45.963917,-15,-24,65,127,38,1,-7,-9
16:26:45.985904,12,13,-10,-84,-59,-3,2,8
16:26:45.985904,4,7,31,103,-103,-9,0,4
16:26:46.000894,-11,-7,-7,1,-128,-35,-5,-5
16:26:46.015886,16,18,17,-128,127,42,15,13
16:26:46.022881,1,-6,-46,-66,92,-25,-6,-1
16:26:46.023877,-10,-9,-31,-82,80,25,-1,-6
16:26:46.037869,4,-5,83,-71,-128,-30,-4,4
16:26:46.045863,10,26,-61,-128,-128,-21,6,7
16:26:46.067853,-21,-63,-69,-128,-1,-29,-7,-16
16:26:46.068850,-13,7,58,0,127,-40,-24,-17
16:26:46.082844,23,47,112,127,127,83,20,17
16:26:46.083843,5,-29,-101,-9,-128,-78,0,8
16:26:46.098831,-14,15,42,-128,127,90,-5,-14
16:26:46.105830,14,10,26,89,-128,-70,4,16
16:26:46.120821,2,-6,-6,-37,70,32,6,4
16:26:46.127814,8,4,127,19,-128,11,9,4
16:26:46.142807,-15,-9,7,78,57,-14,-11,-8
16:26:46.143806,20,48,25,20,127,51,10,10
16:26:46.157795,-9,-53,-45,29,-128,-22,-1,0
16:26:46.173786,-28,-76,-83,-78,-78,-22,-9,-9
16:26:46.180782,18,41,61,82,-36,24,9,5
16:26:46.187777,11,20,22,73,11,3,6,5
16:26:46.202768,17,28,-3,19,-6,14,10,7
16:26:46.203767,-13,-10,20,-52,0,-13,-8,-11
16:26:46.218757,1,-2,-19,-56,-19,-14,-6,-4
16:26:46.225754,-3,-1,3,61,127,3,10,8
16:26:46.240747,1,-23,-19,26,9,14,11,14
16:26:46.248741,-14,-22,87,127,127,18,1,0
16:26:46.262730,13,35,71,127,-91,-48,-10,1
16:26:46.263732,-28,-59,-86,-128,-128,-22,-5,-10
16:26:46.278720,6,15,23,84,127,83,17,10
16:26:46.285719,70,127,62,-6,118,-28,6,20
16:26:46.300710,-21,4,28,43,-67,77,12,-7
16:26:46.308705,-71,-128,-29,16,-105,-6,-10,-19
16:26:46.330691,56,124,117,46,-128,18,13,19
16:26:46.331691,32,96,10,127,47,3,-1,-3
16:26:46.345682,-42,-44,-6,-128,-128,-58,-9,-13
16:26:46.346681,5,-2,23,127,-77,51,5,3
16:26:46.360670,27,-3,42,127,41,45,19,22
16:26:46.368665,70,127,52,-59,127,38,23,26
16:26:46.382659,-20,-14,40,45,-128,-19,-11,-13
16:26:46.383657,-20,-31,-24,71,127,-8,-13,-13
16:26:46.398648,4,19,-38,-114,-11,-23,-6,0
16:26:46.413637,5,-2,-23,-128,127,11,1,3
16:26:46.420636,-37,-50,-19,-34,87,13,-8,-11
16:26:46.427631,5,14,1,-90,-74,-16,-8,-5
16:26:46.443622,8,19,8,5,-1,5,4,3
16:26:46.444622,12,8,46,127,127,-7,10,11
16:26:46.458613,17,35,31,2,49,-2,0,3
16:26:46.465606,21,27,-11,63,127,38,11,12
16:26:46.480599,-9,-24,-30,-120,-71,5,-4,-1
16:26:46.488594,-5,-7,-2,-39,-63,19,4,2
16:26:46.503585,-12,-22,-40,-128,-128,13,0,-6
16:26:46.504582,8,6,39,108,-75,-8,9,7
16:26:46.518576,-1,2,-16,-92,-128,-21,-4,-3
16:26:46.525571,3,9,0,127,127,-33,-3,-3
16:26:46.540562,-15,-40,-9,15,89,13,1,1
16:26:46.548554,10,16,-23,-128,-128,-33,-4,6
16:26:46.562545,-15,-34,-38,2,9,-19,-8,-8
16:26:46.563548,1,12,22,118,39,29,-1,-4
16:26:46.585535,8,-10,28,127,127,23,12,12
16:26:46.586532,2,10,-30,-128,-128,-10,-2,0
16:26:46.600525,15,33,14,-24,14,4,3,4
16:26:46.608521,11,17,17,-2,46,8,3,4
16:26:46.630507,12,25,47,127,52,11,5,4
16:26:46.631506,22,44,38,30,125,15,9,5
16:26:46.638499,-23,-37,2,28,127,45,-6,-10
16:26:46.653493,11,23,15,-20,-41,-13,-3,0
16:26:46.660488,3,-2,22,127,127,80,10,0
16:26:46.668484,7,6,6,-64,-128,-9,6,8
16:26:46.690470,-10,-16,2,17,20,9,0,-3
16:26:46.691469,2,-9,-21,-105,-58,-22,-4,5
16:26:46.698462,4,20,2,-48,-82,-14,-3,-3
16:26:46.705460,-7,-21,-20,-28,101,15,0,2
16:26:46.721448,13,26,52,127,127,31,4,2
16:26:46.728444,2,-8,-9,-10,-42,6,2,1
16:26:46.743435,-13,-30,-33,-44,-59,-20,-9,-10
16:26:46.750432,13,21,48,127,49,10,4,2
16:26:46.765424,-7,-19,-17,-7,98,20,5,1
16:26:46.766420,11,28,16,-45,-128,-30,0,2
16:26:46.780414,-6,-7,10,32,-54,-26,-6,-6
16:26:46.788406,-8,6,19,42,38,5,-6,-7
16:26:46.810396,-6,-17,-59,-58,-71,-18,-4,-3
16:26:46.811395,5,16,6,-46,-26,-6,-3,-1
16:26:46.825387,-3,2,5,18,-10,0,-2,-5
16:26:46.826386,13,23,21,11,127,26,6,6
16:26:46.841374,-10,-13,9,22,-9,7,-1,-1
16:26:46.848372,14,8,1,21,-116,-1,5,9
16:26:46.878354,-7,-6,3,19,26,19,-2,0
16:26:46.878354,16,16,31,52,-55,1,12,13
16:26:46.885350,4,12,31,127,88,7,1,-5
16:26:46.886349,-14,-26,-34,-48,-41,-9,-3,-1
16:26:46.901341,-2,-17,-9,-48,-86,-4,3,3
16:26:46.908336,2,-1,-6,56,-84,-8,-1,4
16:26:46.923327,-4,-8,3,62,-12,-5,-5,-8
16:26:46.931319,3,3,-3,-36,-128,-16,0,0
16:26:46.945310,-6,-13,-9,18,65,5,-1,0
16:26:46.946312,-19,-32,-31,-64,127,7,4,-7
16:26:46.961300,-14,-13,-11,30,-128,-3,-6,-11
16:26:46.968299,-2,-2,-1,21,127,7,1,0
16:26:46.983290,19,38,15,-30,-4,-26,-1,6
16:26:46.998279,-5,-8,-15,-61,-128,-6,-5,-2
16:26:47.005273,-8,-14,-9,26,127,32,-2,-5
16:26:47.006273,6,-6,20,42,-35,-17,-3,-5
16:26:47.021263,6,20,33,42,127,42,6,3
16:26:47.028262,7,11,1,0,-59,-8,0,1
16:26:47.043253,-15,-40,-30,-48,127,-24,1,-5
16:26:47.051248,-18,-25,-8,48,127,52,1,-8
16:26:47.066236,4,14,19,13,-25,-7,-1,1
16:26:47.066236,7,26,40,19,65,15,2,1
16:26:47.095221,6,9,2,-18,-22,10,4,4
16:26:47.096218,1,-1,3,77,127,-4,3,-3
16:26:47.103213,4,15,3,-57,-128,-39,-3,0
16:26:47.110212,-7,-27,-37,-67,107,-22,2,4
16:26:47.126202,-2,-1,-3,-56,62,-16,-1,-4
16:26:47.126202,-36,-53,-18,96,30,92,-10,-20
16:26:47.141191,7,17,13,49,-108,10,4,1
16:26:47.148185,-1,1,-5,-34,-25,-9,-6,-4
16:26:47.163179,1,3,2,49,11,3,3,4
16:26:47.178170,-5,0,-3,-5,-16,-6,7,-1
16:26:47.186165,2,2,1,-1,2,-5,10,6
16:26:47.186165,-3,-1,0,3,5,1,1,-10
16:26:47.208149,9,-5,-5,-3,0,2,-3,7
16:26:47.209149,-5,-4,2,0,1,-10,20,-13
16:26:47.224138,2,2,3,4,5,3,-30,18
16:26:47.231135,2,-11,-15,-15,-14,-5,0,-1
16:26:47.246128,11,1,-4,-4,-15,-37,9,-38
16:26:47.247124,-35,-27,-4,-1,13,7,-128,56
16:26:47.269111,45,18,9,11,0,3,66,6
16:26:47.269111,-3,3,12,11,23,36,23,59
16:26:47.283105,4,0,-4,-3,0,9,52,37
16:26:47.291097,-48,-4,4,10,-1,-49,127,-21
16:26:47.313087,-45,0,-8,-14,-2,-22,-128,90
16:26:47.314084,41,22,1,2,-22,-34,-79,-53
16:26:47.321080,5,-16,-14,-13,-27,-3,46,1
16:26:47.328077,-38,5,1,4,1,20,127,26
16:26:47.351061,33,27,20,17,12,-6,113,-31
16:26:47.351061,14,7,3,3,8,5,21,-10
16:26:47.366051,4,-6,5,3,13,13,-34,-3
16:26:47.366051,8,12,15,82,50,-4,-21,7
16:26:47.381044,-2,-1,-17,-46,-64,-1,-8,2
16:26:47.388040,20,-12,5,-5,18,13,3,21
16:26:47.403031,12,-18,14,114,70,-3,-1,-5
16:26:47.411023,78,12,-5,22,-58,25,23,6
16:26:47.433013,1,9,-28,-28,-6,-31,-11,-8
16:26:47.434010,35,74,-12,-87,-108,-8,25,8
16:26:47.441011,-15,-19,23,87,-128,-58,-18,20
16:26:47.448001,115,22,20,106,127,20,-35,125
16:26:47.462992,-11,24,31,-6,-128,-2,14,-23
16:26:47.470990,-69,24,1,16,86,28,-2,-77
16:26:47.485978,63,43,13,68,70,-14,-12,44
16:26:47.485978,-42,-3,-1,7,-63,42,10,-72
16:26:47.500969,48,-14,6,24,67,14,-9,-4
16:26:47.507965,-26,-2,-9,1,36,-14,-38,-38
16:26:47.522956,-5,5,1,-105,78,11,11,-15
16:26:47.530953,13,-4,16,-13,-128,-4,1,15
16:26:47.545940,-8,-5,-13,-7,127,-15,-17,-3
16:26:47.545940,-4,-5,1,6,33,16,-15,-39
16:26:47.560934,11,-4,-4,-12,-25,2,8,7
16:26:47.567928,1,4,1,-47,-41,-13,7,-2
16:26:47.582917,57,20,11,11,77,42,43,34
16:26:47.590916,1,2,3,0,-45,-3,1,-1
16:26:47.605906,-24,-4,-2,-104,-5,-7,-13,-31
16:26:47.606902,-8,-7,-9,114,49,-50,-27,-7
16:26:47.620897,0,3,-17,8,-12,-5,1,-3
16:26:47.642883,-5,-8,-1,-9,-1,6,-3,5
16:26:47.643881,4,2,-10,3,63,1,3,3
16:26:47.650879,-6,-1,3,-18,70,-19,-8,-8
16:26:47.665869,-3,-8,-2,-38,38,3,-7,0
16:26:47.665869,13,6,-10,-128,-124,-4,19,12
16:26:47.680860,-16,-6,-1,24,20,6,-9,13
16:26:47.687854,-7,-1,-3,-102,-7,-5,-5,-13
16:26:47.702845,3,2,2,-31,3,6,-1,-10
16:26:47.710842,-4,-2,2,-117,-55,-6,-8,1
16:26:47.726832,3,-5,-5,-33,-13,4,0,-1
16:26:47.732826,-12,3,-5,-16,-34,-3,6,-4
16:26:47.740823,-1,-2,5,91,67,12,-7,-18
16:26:47.748815,4,0,-2,24,7,10,11,6
16:26:47.763809,0,-1,3,61,23,-3,1,1
16:26:47.770805,-8,-4,-5,-27,-29,-12,-9,-9
16:26:47.785792,2,0,2,14,-56,-2,43,7
16:26:47.792788,-3,-3,-5,-4,49,5,-8,-3
16:26:47.800783,-5,-1,1,16,8,5,5,-11
16:26:47.807779,0,1,-4,-16,-12,3,2,-2
16:26:47.823770,9,2,2,-128,-128,-4,-1,0
16:26:47.830768,-2,-5,-3,17,21,-4,-13,-5
16:26:47.845759,1,1,0,1,3,6,-2,0
16:26:47.852754,-3,-2,-3,-4,-3,-3,-2,-3
16:26:47.867745,-2,1,-1,-4,-13,-1,-3,-1
16:26:47.868743,-1,-2,4,12,-53,-5,-2,-3
16:26:47.883734,-6,-3,-6,2,-41,3,-3,-2
16:26:47.890728,0,-3,-3,-81,25,2,-1,0
16:26:47.905722,-4,1,2,13,20,0,2,-2
16:26:47.912717,7,4,-1,2,2,7,12,2
16:26:47.928705,0,-2,3,58,9,1,-2,-1
16:26:47.928705,-4,-5,-6,-3,-7,-4,1,4
16:26:47.943695,0,-1,-2,6,21,-1,-2,-1
16:26:47.958686,-2,-1,3,-9,-10,-3,-3,-2
16:26:47.965684,-1,2,0,35,53,5,-1,3
16:26:47.972681,-3,-2,-2,-30,-6,0,-6,-6
16:26:47.987669,-3,-1,3,21,28,0,-13,2
16:26:47.988668,-1,-4,-1,-2,0,4,9,-2
16:26:48.003658,4,-1,1,-1,-3,3,-7,-4
16:26:48.010657,-3,-2,1,-1,-2,-5,-4,-2
16:26:48.025648,-2,0,-3,-7,-3,0,-4,-7
16:26:48.033644,-5,-4,-2,-2,2,-2,-7,0
16:26:48.055630,1,0,0,8,-3,-8,0,-2
16:26:48.056626,1,-3,1,29,42,6,0,-3
16:26:48.062625,-1,0,0,-17,-102,-6,-2,-1
16:26:48.070620,-9,-7,-7,12,17,5,-6,-7
16:26:48.085611,2,1,-2,0,0,1,9,4
16:26:48.093603,-4,-1,-2,-5,-12,1,14,-6
16:26:48.108596,9,2,-2,-1,3,16,13,12
16:26:48.108596,-2,-1,-2,0,-4,-6,0,-2
16:26:48.123587,0,1,-1,-1,1,3,3,0
16:26:48.130583,-4,-2,-4,-7,-12,-9,-1,1
16:26:48.145574,-2,2,-1,2,-3,-2,8,0
16:26:48.153566,-5,-6,-5,-4,0,-1,-1,-9
16:26:48.168557,-4,1,1,0,-3,-4,1,0
16:26:48.168557,-1,-2,-2,3,3,5,0,-8
16:26:48.183547,-2,0,-3,-3,-2,-3,6,-5
16:26:48.190547,-4,-2,-1,-3,-2,1,-5,-5
16:26:48.205537,7,4,3,6,12,16,11,16
16:26:48.213531,-5,-1,0,-1,0,1,3,-3
16:26:48.228520,-1,0,2,0,4,4,-7,-7
16:26:48.228520,3,-2,1,-2,-2,-2,8,16
16:26:48.243511,-2,1,0,-1,-3,0,-3,1
16:26:48.250510,-3,-2,-2,-1,0,-5,-4,-2
16:26:48.265500,-1,2,0,2,-1,-3,13,16
16:26:48.273495,-2,1,4,-1,0,-8,5,7
16:26:48.288483,-6,-1,-3,-1,-4,-2,-2,-9
16:26:48.288483,0,2,0,4,4,2,-5,6
16:26:48.303474,-6,-8,-2,-2,-5,1,-3,-1
16:26:48.310472,-1,1,3,-1,-3,-1,7,1
16:26:48.325462,0,-1,-1,-3,-1,0,10,6
16:26:48.333459,-4,0,-1,-3,-4,3,-3,-1
16:26:48.348446,4,-2,-1,2,0,0,10,14
16:26:48.349446,-4,-3,-1,0,1,0,-2,-3
16:26:48.363440,2,0,2,2,-3,1,1,2
16:26:48.370434,-6,-1,0,-2,2,-1,5,-2
16:26:48.393422,-4,-4,-3,-4,-4,-3,-9,-10
16:26:48.394418,-2,-5,-3,1,1,0,4,-3
16:26:48.408413,-2,-1,-1,0,-2,6,-3,-2
16:26:48.409413,-5,-2,1,-1,-2,-4,-2,-5
16:26:48.423403,-3,-1,-2,-1,-3,8,6,-4
16:26:48.430396,0,-1,-2,1,3,-3,0,-4
16:26:48.445387,2,3,2,4,2,-3,-2,3
16:26:48.453385,0,-1,-3,-5,-2,-1,-6,5
16:26:48.475371,-5,-5,-5,-2,-5,-14,-6,-13
16:26:48.476370,2,-3,-2,-2,2,8,28,9
16:26:48.483366,4,2,0,-2,-1,-2,6,10
16:26:48.490360,2,-1,1,2,0,0,-3,-2
16:26:48.505351,-1,-2,-5,-4,0,0,5,-6
16:26:48.520342,0,-1,-2,1,3,11,6,4
16:26:48.528336,-1,0,0,-2,-4,-4,-4,-6
16:26:48.528336,3,1,-2,0,-3,-3,3,5
16:26:48.543330,3,1,-1,1,1,-2,-3,5
16:26:48.550323,1,-2,2,1,6,2,7,-1
16:26:48.566316,2,-3,-2,-5,1,8,5,8
16:26:48.581303,-2,-2,3,0,1,-1,2,0
16:26:48.588302,-4,-2,-3,-4,-6,2,-1,-3
16:26:48.595295,-5,-2,-3,-3,-2,-1,3,-7
16:26:48.603293,1,-1,1,1,6,-2,-10,-2
16:26:48.610285,-2,-1,-1,-1,0,0,6,5
16:26:48.626276,-2,-2,0,-3,-5,-6,-6,-4
16:26:48.633274,3,1,2,1,0,9,0,-3
16:26:48.648265,0,3,-1,1,3,1,1,-1
16:26:48.649261,-4,-4,-1,0,-3,0,4,2
16:26:48.663254,1,3,2,0,4,1,0,3
16:26:48.671248,-4,-1,-5,-5,0,-3,-1,0
16:26:48.686238,-2,-3,-4,-4,-2,1,1,-1
16:26:48.693237,-1,0,-1,1,3,3,0,-3
16:26:48.708228,1,-2,-1,-3,2,2,7,2
16:26:48.716221,-1,1,-2,-3,3,-2,-5,0
16:26:48.723219,1,1,1,-1,-3,-4,-2,4
16:26:48.745203,-2,0,0,-1,-1,-1,-2,-1
16:26:48.746202,1,-1,-1,-1,1,1,1,2
16:26:48.753200,1,1,0,1,1,-2,-13,3
16:26:48.768191,-1,0,-4,-6,0,-1,0,-4
16:26:48.776186,-4,-2,-2,0,1,7,2,1
16:26:48.791176,1,2,2,2,3,2,5,1
16:26:48.792174,-3,-7,-4,-1,1,0,3,-1
16:26:48.806168,-1,-1,0,0,1,1,0,2
16:26:48.813163,-2,-4,0,0,2,0,1,-3
16:26:48.828154,3,0,1,-1,-1,-10,-12,12
16:26:48.836146,-1,-1,1,1,1,4,9,1
16:26:48.851140,1,-1,-4,-1,-2,1,-3,-8
16:26:48.851140,-3,-2,0,-1,-3,-4,-3,-4
16:26:48.866127,0,1,-1,-1,6,10,2,3
16:26:48.873126,-1,-2,1,-2,-3,-1,-4,-2
16:26:48.888114,3,-2,1,-3,-7,-10,17,18
16:26:48.896109,-4,-3,0,-3,-3,4,7,-8
16:26:48.911100,-1,-1,-2,-1,2,2,-5,-5
16:26:48.911100,-5,0,0,-3,-1,0,-4,-4
16:26:48.926091,-2,-1,1,0,-4,5,1,-1
16:26:48.933090,-2,-1,0,1,1,-2,3,2
16:26:48.948077,4,1,0,1,3,-3,0,1
16:26:48.956072,0,0,-1,-1,0,-3,6,0
16:26:48.970067,-1,-2,-3,-1,-1,0,-9,-3
16:26:48.971063,-1,0,-4,-3,1,3,2,-2
16:26:48.986056,-1,-2,-1,0,-1,2,4,0
16:26:49.001048,-3,-2,0,1,-1,2,12,16
16:26:49.008043,2,0,1,-1,1,1,3,-1
16:26:49.016039,-4,-4,0,-1,0,-2,-3,-3
16:26:49.031028,4,1,2,1,5,6,4,8
16:26:49.038025,2,-2,-4,-2,-2,-2,2,-7
16:26:49.046017,-4,-1,1,-4,-3,-3,-4,-2
16:26:49.053016,0,0,1,0,-2,-5,-21,1
16:26:49.068006,3,2,2,2,0,4,-9,2
16:26:49.076002,-1,-1,0,0,1,-1,4,-4
16:26:49.090989,-2,0,-3,1,0,1,-1,0
16:26:49.090989,0,-1,-4,1,0,0,-3,-2
16:26:49.105980,-3,-2,-1,-3,-5,-5,-6,-2
16:26:49.120971,1,-3,-4,-1,1,8,6,4
16:26:49.127970,-1,0,2,1,-3,0,1,-6
16:26:49.135965,4,-3,0,-2,0,-2,-2,7
16:26:49.150952,1,2,2,2,1,0,0,-1
16:26:49.150952,3,3,4,4,4,6,1,1
16:26:49.165947,1,0,-1,-1,-3,-3,-2,4
16:26:49.172940,-3,-2,0,-5,0,0,13,4
16:26:49.187931,4,-1,-3,1,-2,-1,5,-2
16:26:49.195926,-5,-2,-2,1,1,7,9,-7
16:26:49.210916,-6,-2,1,4,4,-10,3,-7
16:26:49.210916,4,0,-1,-1,0,-9,-3,5
16:26:49.225909,-5,-1,-2,1,-1,3,-6,-9
16:26:49.232903,0,-1,-3,-3,-2,-5,-10,0
16:26:49.247893,-3,-1,1,1,4,-3,-8,-2
16:26:49.255891,-2,-1,-5,-5,-4,1,-2,-5
16:26:49.270879,-4,0,-1,-1,-2,-9,-6,0
16:26:49.270879,-3,0,1,-4,2,4,6,-2
16:26:49.285872,0,2,0,1,4,5,13,2
16:26:49.300863,-2,-1,1,1,1,-7,5,0
16:26:49.315851,-3,-1,-1,0,-1,-4,-20,-7
16:26:49.315851,-1,-3,1,-3,0,-2,-3,-2
16:26:49.330842,3,1,-3,2,-1,-2,6,3
16:26:49.330842,-2,-3,-4,1,-1,-2,-4,-3
16:26:49.345835,1,0,1,1,0,-3,-6,2
16:26:49.352828,-5,2,0,1,-1,-10,-16,-6
16:26:49.368821,-2,-2,-4,-2,-2,-1,7,6
16:26:49.375817,-7,-4,-3,-2,-2,-2,-3,-6
16:26:49.390810,1,0,0,-2,1,2,-7,1
16:26:49.390810,-6,-2,0,-3,0,1,-4,-5
16:26:49.405799,-4,-1,-3,-3,0,1,6,-2
16:26:49.412792,8,3,2,1,5,11,2,4
16:26:49.427782,1,1,-3,0,-3,-2,-1,0
16:26:49.435780,-4,0,3,0,0,-10,-5,-3
16:26:49.450771,8,4,0,0,1,6,1,11
16:26:49.457764,1,0,-3,0,2,-3,-3,-4
16:26:49.472755,-4,-4,-3,-5,-5,-1,10,1
16:26:49.473756,0,1,2,1,4,2,-4,-1
16:26:49.487745,0,2,-4,0,1,-1,-2,-1
16:26:49.495743,3,0,2,5,11,8,5,0
16:26:49.517727,-3,-3,-3,-3,-1,-3,-9,-7
16:26:49.518729,0,-2,1,0,0,1,-3,5
16:26:49.525725,4,-2,-2,-2,0,6,3,2
16:26:49.533718,0,-1,-2,2,2,3,10,8
16:26:49.548707,-1,-1,1,0,0,3,8,-4
16:26:49.563700,-2,-2,-1,-2,0,-10,-18,-2
16:26:49.570697,-4,-3,-2,-2,-1,-1,2,0
16:26:49.577696,5,3,0,0,4,2,-1,11
16:26:49.593680,1,-4,-1,-3,-2,3,3,-3
16:26:49.593680,-2,2,1,1,-2,0,-4,5
16:26:49.608671,-3,-4,-1,-1,0,-9,-6,-4
16:26:49.615669,1,1,0,0,1,-4,-12,0
16:26:49.630660,3,-2,1,1,-4,2,6,8
16:26:49.638654,-5,-1,-1,0,-1,-5,-3,-6
16:26:49.645651,2,0,-2,0,4,3,-10,3
16:26:49.653643,-1,-1,-1,1,1,-1,19,1
16:26:49.668637,-4,1,0,0,1,1,-13,-2
16:26:49.675629,-1,-1,0,3,7,6,5,1
16:26:49.690623,6,1,-1,-2,-1,-4,-3,1
16:26:49.698615,-5,-3,-4,-2,3,4,9,-9
16:26:49.705614,1,-3,-3,-1,0,-7,-10,-12
16:26:49.713606,-4,0,-2,1,-4,-9,-6,-5
16:26:49.728596,-2,0,-3,0,5,0,-8,-1
16:26:49.735596,1,-3,-4,-5,-3,0,4,0
16:26:49.750586,0,-1,-3,0,-1,-4,0,-2
16:26:49.758581,-4,-2,-2,1,2,5,-5,-1
16:26:49.773569,1,-1,-2,-3,2,1,-3,1
16:26:49.773569,-1,-3,-3,0,-1,2,7,-8
16:26:49.788560,2,1,-1,1,0,2,1,-4
16:26:49.795555,-9,-2,-2,-2,-1,-1,6,-4
16:26:49.810549,-3,2,-3,2,-2,0,-2,-8
16:26:49.818545,5,0,0,-1,-1,-10,-7,4
16:26:49.833532,-3,0,-1,-1,-2,2,2,-1
16:26:49.834533,6,-1,-3,-2,3,-3,10,9
16:26:49.848524,-1,-3,-1,0,4,2,1,-2
16:26:49.855522,0,1,2,2,4,6,7,0
16:26:49.870512,-7,-4,-1,-4,-6,-7,-14,-14
16:26:49.878506,2,-1,-3,-2,-1,-7,1,-1
16:26:49.893495,-4,-2,0,0,-3,-4,-2,-7
16:26:49.893495,-3,-4,-3,0,5,10,18,1
16:26:49.908486,2,1,3,-1,0,-1,1,13
16:26:49.915481,-3,-2,-3,0,3,2,-1,-5
16:26:49.930474,0,3,2,0,1,0,5,2
16:26:49.938468,-1,-1,-2,0,0,1,2,0
16:26:49.953460,-3,-3,-5,-3,-2,-4,-3,-5
16:26:49.953460,-2,0,-1,-1,0,-4,-4,-4
16:26:49.968452,-1,-1,-1,1,0,-3,-2,0
16:26:49.975446,2,0,0,-1,0,2,1,2
16:26:49.990436,-2,-1,1,3,2,5,15,-7
16:26:49.998431,-2,-1,-2,-1,4,3,3,0
16:26:50.013422,0,-1,0,2,6,7,-4,-3
16:26:50.013422,15,2,3,5,10,2,3,23
16:26:50.028415,-7,-1,0,-3,-3,-2,1,-4
16:26:50.035408,-6,1,-1,0,3,-2,11,-3
16:26:50.050400,-2,-1,-2,-1,0,2,11,3
16:26:50.058397,-1,0,1,-1,0,4,7,2
16:26:50.073384,-2,-3,-2,0,-2,0,0,-1
16:26:50.073384,0,-1,1,1,2,0,-2,-3
16:26:50.088378,-3,3,-1,2,1,7,1,-3
16:26:50.095371,-5,1,-3,-2,-1,-3,-4,0
16:26:50.110363,-1,1,0,-1,-3,1,2,-1
16:26:50.118360,-4,-3,-4,-3,-3,4,-3,-5
16:26:50.133348,0,-3,-1,0,0,-4,-3,0
16:26:50.134351,13,3,0,2,5,16,4,15
16:26:50.148338,-1,0,1,-1,-2,-9,-14,-3
16:26:50.155335,-1,-1,-2,-1,-4,4,5,-2
16:26:50.171325,-3,3,1,0,0,2,3,0
16:26:50.178323,-2,1,-1,-1,1,2,3,2
16:26:50.193314,1,0,-1,-3,2,2,3,2
16:26:50.193314,-2,-2,1,-1,0,-1,-5,-6
16:26:50.208305,-1,0,-2,-1,2,5,-1,0
16:26:50.216296,-4,0,-2,1,-3,-7,5,4
16:26:50.231288,-6,-2,0,0,2,-1,-7,-8
16:26:50.238286,1,-3,1,0,1,3,6,2
16:26:50.253277,-2,-1,-3,2,2,0,8,-12
16:26:50.260270,3,3,3,6,3,-3,-12,0
16:26:50.268268,0,0,-2,-1,0,-2,3,1
16:26:50.275261,2,2,0,-2,-3,-8,-22,-2
16:26:50.291250,-3,0,0,-2,-3,1,2,-3
16:26:50.298246,0,-2,-2,2,6,6,9,3
16:26:50.313237,-2,-1,-4,0,-3,-2,-1,-1
16:26:50.314239,-1,-1,-3,-3,-1,0,-1,-1
16:26:50.328231,-1,-3,3,-1,-1,3,-7,-3
16:26:50.336226,3,-2,-3,0,-3,0,1,12
16:26:50.351217,-2,-3,-1,0,2,-4,-7,-3
16:26:50.366204,2,-2,-2,1,1,13,25,13
16:26:50.373203,-3,0,0,-2,-2,-2,-8,-6
16:26:50.374200,-1,-3,-3,-3,-3,2,-7,-5
16:26:50.388194,-3,-3,0,-1,-3,-5,0,-7
16:26:50.395190,-1,-2,1,-1,-5,-3,-2,-7
16:26:50.411182,0,-3,0,-1,1,5,4,0
16:26:50.418175,-1,-3,-3,-1,-2,-3,4,-4
16:26:50.433166,-1,0,-1,3,-3,-9,-8,-6
16:26:50.434163,-4,-3,0,-4,0,1,0,-2
16:26:50.449157,-4,-3,0,-1,-2,-6,-6,-4
16:26:50.456150,-5,-4,-5,-1,2,1,-2,-1
16:26:50.471140,-3,-3,-1,-4,-2,-2,-8,-8
16:26:50.478138,2,0,-1,-1,0,0,6,7
16:26:50.493129,2,2,-3,1,1,4,3,4
16:26:50.494129,-5,-1,-2,-2,1,-2,-5,-4
16:26:50.508120,-1,-3,-1,-1,0,4,-15,-10
16:26:50.516112,-4,-1,0,0,-2,-3,-11,-5
16:26:50.538102,-4,-5,-1,-2,-4,-5,2,1
16:26:50.539098,3,-5,-2,0,3,2,-2,1
16:26:50.553092,-2,-2,-1,1,1,0,6,1
16:26:50.576077,0,-2,-2,1,3,3,-7,1
16:26:50.576077,-4,-2,0,-1,-3,-1,4,-5
16:26:50.577077,3,-1,-1,0,5,9,-4,4
16:26:50.591069,-5,-1,-6,-1,-3,-3,-1,-3
16:26:50.598062,-5,0,-2,1,2,3,1,2
16:26:50.613053,-1,-2,0,-2,-2,-1,-2,-2
16:26:50.621047,-4,-3,1,-1,-1,2,-1,-6
16:26:50.628046,-1,2,-6,-5,-5,-9,-5,2
16:26:50.636038,0,-2,-1,0,1,-1,-13,2
16:26:50.651032,-6,0,-2,-1,-2,-1,-6,-10
16:26:50.658028,1,-1,1,-1,0,-4,-15,3
16:26:50.673018,-1,1,1,0,0,-1,1,-5
16:26:50.681014,-4,-1,-4,-2,-1,1,-2,-3
16:26:50.703000,-5,-3,0,0,-4,-3,-2,-1
16:26:50.703996,3,2,-2,0,2,-5,-7,4
16:26:50.710995,-2,1,0,-3,1,2,1,-4
16:26:50.717988,-4,-1,-1,-1,-1,-2,-3,-4
16:26:50.732981,-3,-1,3,-2,-2,-4,-4,-3
16:26:50.740976,-3,-2,-1,1,-2,3,3,-1
16:26:50.755965,1,5,0,0,-1,1,0,0
16:26:50.755965,1,-5,-3,-3,-3,-1,25,7
16:26:50.777954,-2,0,1,2,3,4,1,-4
16:26:50.778953,-1,0,1,-1,1,0,3,6
16:26:50.792943,-1,0,-2,2,3,-1,-5,-3
16:26:50.800937,6,5,3,3,5,7,16,23
16:26:50.815927,-4,0,-1,-4,-3,-2,-2,-4
16:26:50.815927,-7,-1,0,-1,1,3,2,-6
16:26:50.830921,-1,-1,-3,0,1,1,1,-4
16:26:50.837916,0,0,0,1,-2,-1,-2,-2
16:26:50.852904,-1,0,0,1,3,-6,-7,0
16:26:50.860904,2,1,-3,0,-1,-3,3,-2
16:26:50.875891,3,0,-1,-3,-3,-3,1,0
16:26:50.875891,0,-3,-4,-3,-3,1,-4,0
16:26:50.890885,-1,-1,-1,-2,0,-2,0,-5
16:26:50.897877,-2,-2,-3,-3,-1,-1,-1,-4
16:26:50.912872,3,-2,0,-2,-1,0,-2,0
16:26:50.920866,0,-1,-4,-2,-3,-1,-1,-3
16:26:50.942851,0,2,0,2,-1,-1,1,-1
16:26:50.943851,-1,-1,-1,-2,2,3,-2,-2
16:26:50.950848,3,1,-2,-2,-4,-1,-1,-2
16:26:50.957841,-3,-2,-3,-2,0,-2,-9,-1
16:26:50.980826,-2,-1,-2,-3,0,-7,-15,-3
16:26:50.980826,0,-1,-1,-2,-1,5,11,5
16:26:50.995820,0,0,1,2,2,1,-10,-8
16:26:50.995820,3,2,1,-2,-1,-12,-18,8
16:26:51.010811,-2,-1,1,3,0,-3,2,-5
16:26:51.017804,-2,1,0,-2,2,-2,-5,-5
16:26:51.033796,-2,0,0,-3,-3,-2,-14,-3
16:26:51.040792,-1,-3,-1,1,-2,3,-4,-7
16:26:51.063775,5,0,-2,0,3,-4,-2,11
16:26:51.063775,1,-1,-3,-1,-2,-1,1,2
16:26:51.077766,-3,-1,1,-2,-1,-3,-5,-5
16:26:51.078766,1,-4,0,0,1,-4,5,5
16:26:51.092760,-1,0,-2,-4,0,0,-5,-2
16:26:51.100755,0,-2,0,0,0,-1,0,-1
16:26:51.115746,-4,-3,-3,-1,-1,2,4,-8
16:26:51.116742,3,-2,-2,0,-7,-2,-6,-4
16:26:51.130735,2,-1,1,2,0,2,4,8
16:26:51.137732,-2,0,-3,-1,0,0,8,13
16:26:51.153721,-4,-3,0,-1,-1,-1,-9,-5
16:26:51.160718,-3,0,1,-1,-3,-1,1,-1
16:26:51.175709,0,-1,-2,-2,-1,-2,-1,-2
16:26:51.176707,-4,0,0,1,0,4,-4,1
16:26:51.190700,-2,-1,0,0,2,0,1,0
16:26:51.198692,1,1,2,-3,1,-1,-1,-3
16:26:51.213682,-2,0,-3,-1,-5,1,0,-3
16:26:51.228673,-3,-1,-1,0,5,7,1,0
16:26:51.235672,0,-1,0,0,-4,0,-1,1
16:26:51.236671,-2,-2,-2,-2,-2,-3,1,0
16:26:51.250663,-1,-3,1,-1,-3,-1,0,-2
16:26:51.258656,0,1,0,-1,1,2,4,3
16:26:51.273648,0,0,-1,1,-3,-1,-1,0
16:26:51.295635,-3,1,1,2,0,-1,-3,0
16:26:51.296632,-1,-3,-1,1,0,0,-2,-3
16:26:51.296632,0,2,0,0,1,2,-1,1
16:26:51.310626,1,0,0,-1,3,0,-6,2
16:26:51.318618,-1,-4,-3,-5,-4,-2,-1,0
16:26:51.333611,-2,-1,-1,-2,0,-3,-1,1
16:26:51.340608,0,1,-2,1,0,-2,-1,-2
16:26:51.355598,0,1,3,-1,1,2,-2,0
16:26:51.356595,-1,2,1,-2,-2,-1,1,1
16:26:51.370589,2,3,1,2,-1,-1,8,1
16:26:51.377585,-1,-1,0,2,0,3,-2,2
16:26:51.393575,-1,0,-2,0,-3,-2,-3,-2
16:26:51.400571,-3,0,-1,-1,5,3,-2,-3
16:26:51.415559,3,-1,0,-2,-4,-3,0,0
16:26:51.416561,-1,1,-3,0,0,1,-6,-8
16:26:51.430552,2,0,-1,-1,1,1,-8,1
16:26:51.438544,-1,4,1,5,3,1,2,0
16:26:51.453535,-2,-3,-2,-1,1,0,2,2
16:26:51.460534,1,-2,-6,-3,1,-3,-7,-6
16:26:51.475522,-3,-2,-1,-1,-4,-4,-7,3
16:26:51.476523,-3,-4,-2,0,1,-1,6,3
16:26:51.498508,-2,0,-2,-1,-2,-6,-1,-5
16:26:51.498508,1,-1,-2,0,0,1,-2,0
16:26:51.513501,-2,-1,1,-1,-2,-3,1,-1
16:26:51.520496,2,0,-1,3,0,0,2,0
16:26:51.535487,0,0,-2,-2,-2,-5,-13,-1
16:26:51.543480,-1,-1,-2,-2,1,8,-9,-2
16:26:51.550478,-2,-1,-1,1,2,4,-3,-3
16:26:51.558473,0,1,1,2,2,5,4,4
16:26:51.573464,2,-1,-4,0,0,-4,-2,-3
16:26:51.580459,-4,0,-3,-3,1,3,1,-6
16:26:51.595449,0,3,0,-3,-1,-1,-1,-4
16:26:51.603446,1,-2,3,2,3,0,1,-1
16:26:51.610441,-1,2,-1,-2,-4,1,5,0
16:26:51.618436,1,2,1,0,0,-1,1,0
16:26:51.633427,-2,1,-4,-1,-2,0,3,3
16:26:51.640421,0,0,0,1,3,-1,1,0
16:26:51.655413,-1,-1,-2,-3,-1,-4,1,-1
16:26:51.663406,0,0,-2,0,-2,-3,-2,0
16:26:51.678397,-1,-2,-4,-2,-2,2,-2,-1
16:26:51.678397,0,-3,-4,0,0,1,-1,-2
16:26:51.693390,3,-3,-1,-3,-1,-1,0,0
16:26:51.700384,-2,-3,-3,2,0,-1,0,1
16:26:51.715374,0,-1,-3,1,1,0,0,1
16:26:51.723372,-2,-3,-2,0,-1,0,-2,-4
16:26:51.738360,2,0,1,-2,-1,0,-1,-1
16:26:51.738360,-5,-1,0,0,-1,0,-3,-3
16:26:51.753353,-3,-2,-2,-1,-3,-5,0,-2
16:26:51.768344,0,-4,1,1,-5,-2,-2,0
16:26:51.775338,-2,-1,-3,-2,2,0,0,-1
16:26:51.783335,-3,2,-5,-3,-1,0,0,-2
16:26:51.798325,-1,-1,-2,2,3,2,-3,-3
16:26:51.799324,-2,0,1,1,-1,-8,-15,1
16:26:51.813316,-2,-3,-2,-3,4,-1,4,0
16:26:51.820310,0,-1,-3,-1,-1,-6,-4,-3
16:26:51.836300,0,1,-1,1,4,1,-8,4
16:26:51.843298,1,-2,2,-3,2,-3,1,0
16:26:51.858289,-2,-1,-2,1,-2,-4,-2,-1
16:26:51.859288,-2,-2,-1,-3,3,-1,6,-2
16:26:51.873280,-1,1,1,3,-2,-6,-5,3
16:26:51.880274,-5,-1,-1,0,2,2,-11,-4
16:26:51.895265,1,1,-1,1,-1,0,-2,-1
16:26:51.903261,-1,-2,-2,1,-1,-1,0,-3
16:26:51.918252,0,0,-3,0,1,2,0,-1
16:26:51.919251,-2,0,0,-1,-1,-3,-2,-3
16:26:51.933243,2,3,1,0,4,5,5,0
16:26:51.940238,-2,-2,0,-2,-5,2,0,-2
16:26:51.956227,0,0,-1,-1,-4,0,-2,-1
16:26:51.963224,-1,2,-2,0,0,-2,1,-4
16:26:51.978215,-2,-2,-5,-4,-3,-3,-6,-2
16:26:51.979213,-1,-1,-1,-4,-1,0,2,-2
16:26:51.993203,-1,-2,0,0,0,-11,-21,-9
16:26:52.001201,1,1,-4,3,-2,1,3,1
16:26:52.016189,-3,0,-1,1,-1,0,-2,-4
16:26:52.023187,-1,2,-1,2,4,-2,-2,-1
16:26:52.038178,-1,0,-1,-1,0,-7,-13,0
16:26:52.039174,2,-1,1,2,0,0,1,-3
16:26:52.053169,-1,-1,-3,3,-1,1,2,-1
16:26:52.060164,2,-1,0,-1,1,-2,0,-1
16:26:52.076152,0,-1,0,0,-1,-4,0,-2
16:26:52.083150,2,-1,0,0,-4,-4,0,3
16:26:52.098138,-1,-1,-3,-2,0,1,-2,-4
16:26:52.099141,5,2,1,2,2,3,10,4
16:26:52.113133,0,-5,-1,0,-1,5,-1,-5
16:26:52.121127,0,-4,-3,-2,-3,-9,-6,0
16:26:52.136115,-3,-3,-1,2,2,3,4,0
16:26:52.143114,-3,-3,-2,-1,-1,-1,-1,0
16:26:52.158102,-2,-3,0,-2,0,-3,-2,-1
16:26:52.159101,-2,2,1,-1,-1,1,-1,-1
16:26:52.173095,-1,0,1,-2,2,1,2,2
16:26:52.181088,0,0,-3,0,-3,-1,-4,3
16:26:52.196081,-2,-4,2,-1,-2,-1,-3,-5
16:26:52.203077,-1,0,0,-1,-3,3,-3,-3
16:26:52.218067,1,-1,0,1,-4,-5,-1,-4
16:26:52.219064,-2,-3,-1,2,1,6,11,-7
16:26:52.233058,-1,-2,0,-3,-3,-3,-2,-2
16:26:52.241050,-1,-1,-1,-1,0,4,0,-2
16:26:52.256044,-2,0,1,1,-3,-3,0,-2
16:26:52.263038,1,3,0,-1,-3,0,-4,2
16:26:52.278030,-1,-1,0,-1,1,-2,2,2
16:26:52.279030,1,-3,-2,-1,-3,1,2,1
16:26:52.293021,4,0,-1,-1,1,-1,-6,-4
16:26:52.301016,2,1,0,-2,3,1,16,16
16:26:52.316007,-1,-2,-1,1,-3,-4,0,-3
16:26:52.322999,-1,-1,-2,1,1,-3,-1,-3
16:26:52.337993,1,0,-1,0,-5,-7,-12,5
16:26:52.338992,-4,0,0,-1,3,0,2,0
16:26:52.352982,1,-4,-3,-4,-3,-4,-1,0
16:26:52.360976,-3,-1,0,-4,-4,2,-3,-3
16:26:52.375970,-1,-1,-2,-2,-1,3,-1,-1
16:26:52.390961,0,0,-2,0,-2,-7,2,0
16:26:52.397954,2,-1,0,-2,-1,2,2,5
16:26:52.398953,-1,0,-2,1,3,-1,-2,0
16:26:52.412946,0,-3,-1,-2,-1,1,-4,3
16:26:52.420943,-5,-4,-2,0,-3,-1,4,-5
16:26:52.435933,1,1,-1,2,-3,-2,-2,-1
16:26:52.442926,-1,1,2,-3,-1,-3,-5,0
16:26:52.457917,-3,0,-1,0,-1,-1,4,1
16:26:52.465915,-3,0,-4,-2,-2,0,12,-1
16:26:52.472908,1,-1,1,0,-4,4,1,1
16:26:52.480904,-1,-2,-3,-2,-1,-5,2,1
16:26:52.495896,0,-2,-3,1,1,-1,-1,-2
16:26:52.502889,0,1,-3,0,1,1,0,0
16:26:52.517880,-2,-4,-2,-1,-3,1,8,0
16:26:52.532874,-3,-1,-1,0,-2,-5,8,0
16:26:52.533873,0,-1,0,-1,2,-1,1,4
16:26:52.540869,-5,-4,-2,0,2,0,1,-2
16:26:52.555859,-2,-1,-2,-3,-3,-2,-8,-5
16:26:52.562851,-1,-3,-1,-1,-3,1,10,4
16:26:52.577844,1,0,-1,2,-1,-4,-3,-4
16:26:52.585840,0,-2,0,-4,1,3,-1,0
16:26:52.600828,1,0,-1,-1,5,4,6,3
16:26:52.601828,-3,-3,-3,-1,-1,-1,-3,-5
16:26:52.615823,-2,-1,-1,2,1,8,3,0
16:26:52.622817,-2,-1,-1,-2,1,3,-3,3
16:26:52.645804,-2,-1,-1,1,-1,-4,7,-3
16:26:52.646802,0,1,1,0,0,-5,-8,2
16:26:52.660795,-5,0,0,1,-4,0,-2,-5
16:26:52.660795,-4,-2,-1,-1,0,2,3,1
16:26:52.675782,1,0,-1,-1,2,-4,2,9
16:26:52.690776,-2,-1,-3,0,0,-1,0,-2
16:26:52.698768,-3,-1,-1,-1,-2,0,0,-2
16:26:52.705765,-2,-1,-3,-2,-5,-4,2,-5
16:26:52.720758,-2,-1,1,0,-4,-3,-2,-2
16:26:52.721754,-2,-6,-1,2,0,-4,-3,-2
16:26:52.735748,0,1,-2,1,-1,0,-2,-5
16:26:52.742744,-1,-3,-3,-1,-1,-5,-13,-2
16:26:52.758735,-4,-1,0,-1,-2,-3,-8,-2
16:26:52.765731,-2,-4,-1,1,0,-3,-5,-2
16:26:52.780718,-1,-1,-5,-4,2,-2,-2,0
16:26:52.781718,-1,1,-2,-4,-1,-7,-1,-1
16:26:52.795712,-4,1,-1,1,-1,0,-5,1
16:26:52.803707,0,-4,-1,-1,-3,-4,-3,-2
16:26:52.818698,0,-1,-2,-1,1,-3,1,-2
16:26:52.825694,-3,-2,0,-1,2,-3,-9,-6
16:26:52.840684,1,2,0,4,1,0,13,12
16:26:52.841683,0,-4,-2,0,-1,1,-9,-5
16:26:52.855675,1,-4,0,-2,1,-5,3,0
16:26:52.863667,-5,0,-1,-3,0,-9,-5,-5
16:26:52.878661,3,-3,-1,0,-2,2,0,6
16:26:52.885656,-1,-1,1,-3,0,-1,2,-2
16:26:52.900647,1,1,-4,0,1,4,2,0
16:26:52.901647,-1,-1,-2,-3,-4,-2,-3,-1
16:26:52.915638,-3,-4,-4,-1,-3,0,-4,1
16:26:52.923633,-1,0,-2,-2,2,3,0,-3
16:26:52.938624,1,0,-1,-3,-2,0,-2,-2
16:26:52.945619,-4,-2,-2,-2,0,-3,-4,-1
16:26:52.968602,1,0,-1,3,-3,-8,7,0
16:26:52.968602,-2,2,0,0,1,-2,-11,-8
16:26:52.975601,-1,1,3,2,3,3,2,-2
16:26:52.983593,-4,-2,-2,1,-4,-2,-1,-2
16:26:53.005582,3,0,-1,-1,0,0,2,1
16:26:53.006579,-2,1,-1,1,0,8,0,1
16:26:53.020573,1,-1,1,-3,-2,-3,5,8
16:26:53.021569,1,-1,-2,-3,-3,-2,-2,0
16:26:53.035563,-1,-1,0,3,1,-5,0,3
16:26:53.043556,-1,-3,-1,-3,1,0,-2,-1
16:26:53.065543,-3,3,1,0,0,-4,-21,-6
16:26:53.066545,-1,-4,-1,-3,0,0,9,8
16:26:53.080536,0,-3,-2,0,-3,0,-2,-4
16:26:53.081534,0,-3,-2,1,-2,-7,-5,-2
16:26:53.095526,3,-1,0,1,-2,7,3,6
16:26:53.103522,0,-1,-2,0,0,0,1,2
16:26:53.118513,0,0,1,1,5,4,-3,1
16:26:53.125505,1,-4,-2,0,0,-4,1,-2
16:26:53.148492,1,-1,-2,-2,0,0,5,-1
16:26:53.148492,-1,0,1,-4,0,3,8,-3
16:26:53.155490,0,0,3,1,2,3,1,1
16:26:53.163485,0,0,-1,-2,-2,0,2,-1
16:26:53.178476,-1,-1,-3,-4,-3,-5,-10,-7
16:26:53.185470,-1,-1,-2,-2,-1,-4,3,8
16:26:53.200463,-1,-1,-1,-1,1,0,-2,-3
16:26:53.201462,-1,1,2,0,0,-6,-4,-2
16:26:53.216452,-1,-1,-1,-2,-3,-6,-17,-1
16:26:53.223448,-1,-3,2,-2,1,-2,0,-2
16:26:53.238439,1,0,0,0,0,-1,0,2
16:26:53.245432,-2,-1,-1,-1,-1,-3,13,2
16:26:53.260426,2,1,-1,-1,-1,-3,-1,-2
16:26:53.261422,-2,-2,-1,-4,-1,-2,8,3
16:26:53.275415,-1,-1,1,1,0,-4,2,-1
16:26:53.283412,-2,-3,-1,2,1,5,1,0
16:26:53.298402,2,-1,0,2,3,-1,5,8
16:26:53.305395,-4,0,0,-4,-2,-3,13,-7
16:26:53.320388,0,-3,1,1,-1,0,1,-2
16:26:53.321385,-2,0,-1,1,2,-1,10,0
16:26:53.336377,0,-1,-1,0,-3,-4,-9,-1
16:26:53.343375,-1,-1,-3,1,0,-1,-1,-3
16:26:53.358365,-1,0,0,0,-3,-3,3,4
16:26:53.365358,-3,-4,-2,0,0,-1,-3,-3
16:26:53.380352,-2,0,-1,-1,-3,1,4,0
16:26:53.381348,-2,0,-3,-1,5,1,1,0
16:26:53.395339,-4,-3,-3,-1,-3,-3,-19,-9
16:26:53.403338,2,-1,1,-1,0,5,3,17
16:26:53.418329,-2,-3,-2,-1,-2,4,26,-3
16:26:53.425324,1,-3,-5,1,-1,0,-4,0
16:26:53.448310,-3,-4,-1,-2,-5,-1,0,-4
16:26:53.449308,-2,1,-1,-2,0,0,1,4
16:26:53.455302,-3,-2,-1,0,-2,0,-4,-1
16:26:53.463300,1,-1,-3,-2,-2,1,0,1
16:26:53.478290,-1,-2,-3,0,-4,-3,-3,-2
16:26:53.486285,-1,-2,-3,0,0,-3,-6,-3
16:26:53.501277,1,-1,3,3,-2,-7,-12,-5
16:26:53.516265,2,0,-1,2,1,0,-2,19
16:26:53.523264,-1,-2,1,1,1,-4,-13,-5
16:26:53.523264,0,-3,-3,-2,-1,-3,-6,-2
16:26:53.538254,-1,2,-1,-1,1,-4,2,3
16:26:53.545250,-1,-1,-1,-1,2,6,2,4
16:26:53.561239,1,0,0,1,-2,-2,-2,-1
16:26:53.568236,-5,0,-5,-3,-2,-1,0,-1
16:26:53.583227,-2,1,0,1,3,1,-5,-1
16:26:53.584226,0,1,0,1,2,6,6,3
16:26:53.598215,-3,3,-1,0,-1,-2,-5,-6
16:26:53.606214,1,-4,0,-1,1,0,3,2
16:26:53.621201,-4,1,0,0,0,2,-10,7
16:26:53.628199,-1,-2,1,0,0,-2,3,-1
16:26:53.643190,-5,-3,-2,-4,-1,-3,-11,1
16:26:53.644187,-1,-1,-1,1,1,-3,6,-1
16:26:53.658181,2,0,-4,-1,0,1,3,1
16:26:53.666173,-2,-1,0,0,3,5,0,-2
16:26:53.681164,-2,-2,-3,-2,-3,0,3,4
16:26:53.688162,-3,-1,-1,-2,1,-3,-2,-2
16:26:53.703153,-2,1,2,2,0,-2,-3,-4
16:26:53.710150,-3,-1,-3,0,0,0,12,-1
16:26:53.726139,-2,-2,-3,-1,-4,3,-6,-6
16:26:53.726139,-4,0,-2,0,-2,-1,2,-2
16:26:53.748122,-3,-1,-3,-1,-2,-2,-1,-4
16:26:53.749122,0,0,-4,-3,-2,-2,5,2
16:26:53.763113,-1,-2,-5,-2,-3,-4,-1,-3
16:26:53.764115,-3,1,-2,-4,1,-2,3,-1
16:26:53.779104,-2,1,0,-2,-2,-6,-5,-1
16:26:53.786102,0,1,-3,-2,2,2,5,2
16:26:53.801093,2,1,-1,-1,1,0,3,5
16:26:53.808089,-4,-2,-3,0,0,-1,-7,-2
16:26:53.823079,0,-3,-1,-5,-5,-4,12,6
16:26:53.824076,-2,-2,-1,-1,2,-1,2,-2
16:26:53.838068,-2,-2,-2,-2,0,-2,1,-4
16:26:53.846062,-2,-2,-2,1,-1,1,1,-3
16:26:53.868049,-1,-1,0,1,1,-2,6,-1
16:26:53.869048,-1,0,0,-2,0,0,-5,-1
16:26:53.883043,-1,-3,-4,-1,-2,-5,2,1
16:26:53.884042,0,-1,-2,-4,1,-2,-1,0
16:26:53.899032,3,1,-1,0,-3,2,22,6
16:26:53.906027,0,-1,-1,1,6,5,1,4
16:26:53.921019,2,-3,1,-5,-3,3,-3,-4
16:26:53.928013,-2,-1,-4,-2,-6,-5,-13,-7
16:26:53.943006,-1,-2,-2,0,1,4,-1,13
16:26:53.944005,-2,-2,0,-1,2,-2,1,-2
16:26:53.957993,0,-3,0,0,-1,3,3,-1
16:26:53.965992,1,-1,-1,1,0,-3,-1,3
16:26:53.980981,0,1,0,5,-1,2,12,2
16:26:53.987975,-3,-2,-1,-2,0,1,-6,0
16:26:54.002969,-1,0,5,2,4,7,8,3
16:26:54.003965,1,0,0,2,6,3,11,11
16:26:54.025952,-2,-3,-2,-1,-2,-11,-21,-2
16:26:54.025952,-2,0,-1,-1,-2,3,11,-5
16:26:54.040945,-1,0,-2,1,-1,2,3,-4
16:26:54.047939,0,-3,-1,-3,0,0,9,3
16:26:54.062932,-3,-2,-3,0,-3,-1,-4,-4
16:26:54.063931,-2,-1,-2,-1,-5,-2,-4,3
16:26:54.077920,-1,0,-1,0,1,1,-1,-1
16:26:54.085917,-1,-3,2,1,-1,-2,3,-7
16:26:54.100906,2,-2,0,3,3,7,5,5
16:26:54.108904,-2,-1,1,0,-1,-7,-3,-3
