timestamp,emg1,emg2,emg3,emg4,emg5,emg6,emg7,emg8
16:30:15.921669,0,-1,4,1,-2,2,2,-1
16:30:15.935660,0,0,-2,0,4,5,7,19
16:30:15.942659,-4,-2,-4,-3,-6,-14,-31,-10
16:30:15.956649,6,-1,-2,-1,-2,7,18,8
16:30:15.957646,-2,-1,-1,6,5,1,-4,-6
16:30:15.972636,-1,0,0,-2,-1,-2,0,1
16:30:15.979632,-3,-2,-1,-2,-4,-4,-5,-2
16:30:15.994622,-3,-3,-1,0,0,-9,-1,-4
16:30:16.002619,-3,-1,-5,-3,-2,0,2,-4
16:30:16.017610,-3,-3,-7,-2,-2,10,8,-4
16:30:16.017610,3,-2,2,-1,-2,0,9,-4
16:30:16.032601,-2,-1,-2,-3,-1,-1,10,-5
16:30:16.039595,4,3,2,0,-5,2,11,5
16:30:16.054586,-1,-2,-1,0,4,4,8,4
16:30:16.069577,3,-1,-2,0,-3,0,0,2
16:30:16.076586,-1,1,0,-1,3,11,-3,-7
16:30:16.077575,3,0,1,1,0,-6,-4,2
16:30:16.092562,-2,-2,-3,-1,-3,-10,-30,6
16:30:16.099558,-1,-1,1,1,-5,2,6,0
16:30:16.114549,0,0,0,-1,1,-3,-1,-6
16:30:16.121549,2,-1,2,-2,-2,-1,5,6
16:30:16.137535,-3,-3,-1,-1,-2,-4,-6,-7
16:30:16.137535,-3,-1,-2,-4,2,10,2,0
16:30:16.167517,0,3,0,0,1,0,8,3
16:30:16.167517,-4,-4,-5,-2,1,3,8,-17
16:30:16.174512,2,3,0,1,0,9,11,4
16:30:16.182508,3,-3,-2,0,-1,0,10,1
16:30:16.197499,-3,-1,-2,0,-3,0,-1,-4
16:30:16.197499,-1,2,-1,-2,-1,-2,-7,-4
16:30:16.212488,1,-2,0,-2,0,1,0,12
16:30:16.219485,0,-3,0,-2,0,-3,-5,-10
16:30:16.235478,-5,2,-2,-3,-3,-5,-2,-6
16:30:16.242474,5,0,-4,-4,-1,-3,3,7
16:30:16.257465,2,-3,-1,0,0,0,5,0
16:30:16.258465,-2,0,0,-1,-4,-2,4,-5
16:30:16.272456,0,-4,-3,-1,-1,8,22,-6
16:30:16.280447,-2,1,0,0,2,3,-3,-1
16:30:16.309431,-1,-1,-2,2,-1,2,4,3
16:30:16.310429,3,2,-4,-1,-3,1,5,8
16:30:16.317428,4,2,-1,1,0,0,0,0
16:30:16.318426,-3,-1,-2,0,-1,5,0,-3
16:30:16.332419,-3,-3,-1,0,-1,-4,-6,-5
16:30:16.340414,-1,3,-1,-2,-2,1,5,-1
16:30:16.355402,-4,0,0,-3,-2,-1,-4,-3
16:30:16.362400,3,2,0,0,0,5,5,3
16:30:16.385383,-4,0,-4,0,-1,-5,-4,-5
16:30:16.385383,6,-1,0,0,-1,-12,-27,14
16:30:16.392381,-1,-1,-2,-1,-1,-5,2,-7
16:30:16.400376,-2,-2,2,-1,-3,3,0,-3
16:30:16.415366,2,-1,-4,-3,0,-4,-6,-8
16:30:16.422360,0,2,2,2,0,2,3,-3
16:30:16.437354,-3,1,2,1,0,-1,-7,0
16:30:16.438353,-5,-5,-5,-4,-4,-5,-4,-7
16:30:16.452345,1,-1,-1,1,-1,1,1,0
16:30:16.459340,-7,-3,-5,-4,-1,-6,-29,-3
16:30:16.475330,0,-1,3,-1,0,2,20,-1
16:30:16.482326,1,0,0,0,0,5,4,3
16:30:16.498314,1,0,2,3,-1,-4,0,0
16:30:16.498314,-2,-3,-2,-1,-4,-1,6,5
16:30:16.512307,-5,1,2,-2,0,4,0,0
16:30:16.520303,4,0,2,3,1,5,22,9
16:30:16.535294,-6,-1,0,-2,-4,-4,-9,-9
16:30:16.542289,4,2,1,0,4,5,7,21
16:30:16.557280,0,-3,1,-2,-2,-3,-1,-3
16:30:16.565276,-1,-2,-1,-1,1,-3,-27,0
16:30:16.581263,-3,-1,-1,0,2,2,10,1
16:30:16.581263,3,-1,-3,0,3,4,3,-2
16:30:16.595256,-4,0,0,0,-1,0,10,6
16:30:16.610245,0,-1,-2,0,-2,-6,-17,-10
16:30:16.617243,1,-2,-3,-3,1,5,3,1
16:30:16.625240,-2,-3,0,0,-1,0,5,-3
16:30:16.640226,8,3,1,2,4,17,19,17
16:30:16.641225,-2,1,-1,0,-2,-6,2,-5
16:30:16.662215,-4,-3,-1,-2,-6,-7,-19,-8
16:30:16.663212,0,-1,0,1,-1,4,9,2
16:30:16.677204,2,1,-4,-1,-1,-2,11,8
16:30:16.685202,-8,-3,-1,-3,1,1,-5,-2
16:30:16.700189,-4,-3,1,0,-1,-3,-8,-8
16:30:16.700189,3,0,-4,2,-1,8,11,4
16:30:16.715183,-2,-2,0,0,-2,-3,-3,-7
16:30:16.722177,0,-1,-3,0,-1,-3,-9,-2
16:30:16.745162,-4,2,1,-1,-1,-2,-27,-10
16:30:16.745162,2,-4,-2,-3,-5,2,16,9
16:30:16.760152,-4,0,1,-1,-1,-4,-7,-9
16:30:16.760152,-2,-5,-3,-1,-2,2,5,3
16:30:16.775144,-4,-3,0,1,-3,-2,-19,-6
16:30:16.782139,2,4,0,-5,-2,-6,4,-3
16:30:16.798132,2,5,-2,-5,1,5,11,17
16:30:16.805128,-5,-4,-3,-2,1,-5,-8,-5
16:30:16.827112,3,-2,-1,-4,-1,-3,-9,3
16:30:16.828111,-4,-2,-1,-2,-3,-2,4,-11
16:30:16.835109,-5,-2,-1,-1,3,9,0,-5
16:30:16.842102,3,-4,-1,-2,1,-1,9,6
16:30:16.857093,-4,-1,0,-2,0,1,-4,-3
16:30:16.865088,-2,-1,-2,-3,-1,-5,-4,2
16:30:16.881078,9,2,1,-1,-2,12,8,11
16:30:16.881078,-2,-2,0,-2,-1,-1,-1,0
16:30:16.895072,-2,1,1,-1,1,8,11,-3
16:30:16.903068,0,1,-1,-2,-1,-11,-24,-1
16:30:16.918057,-6,-4,0,-3,-2,6,3,-7
16:30:16.925051,9,-3,-3,-1,-3,-1,10,8
16:30:16.940043,2,-2,0,1,3,-5,-12,-8
16:30:16.941041,-4,-5,-2,-4,0,3,-8,-6
16:30:16.955035,-2,-2,0,-2,-1,-8,-5,-8
16:30:16.963028,1,0,-4,3,-4,-5,-10,-5
16:30:16.978021,-1,1,-1,1,-4,0,2,-1
16:30:17.000005,2,-3,-1,1,0,9,43,4
16:30:17.001005,4,2,2,0,3,-3,6,4
16:30:17.001005,-2,-3,-2,1,-3,-2,3,0
16:30:17.014996,1,-2,-1,-1,-1,-2,1,2
16:30:17.021990,1,-1,-1,-3,0,-3,-3,-1
16:30:17.037981,-3,1,1,1,-1,-4,-1,10
16:30:17.044980,-3,2,0,-2,-4,-1,-6,1
16:30:17.059971,-3,-2,-4,-4,-1,1,-9,-12
16:30:17.060967,-5,-2,-2,2,0,5,17,-5
16:30:17.074962,0,0,2,2,0,3,8,-3
16:30:17.082954,-1,0,-2,-4,0,3,-1,-3
16:30:17.097945,-1,0,0,1,4,-3,-10,-3
16:30:17.112938,0,-4,-3,-3,-3,-4,0,-3
16:30:17.119934,0,0,-1,1,-1,-3,-6,-5
16:30:17.120932,-4,-2,0,-3,-4,-6,-9,-5
16:30:17.134925,-1,1,-1,-1,3,16,24,11
16:30:17.141920,1,0,-1,2,0,-1,2,5
16:30:17.157908,-5,-1,-1,0,-2,-5,-7,-7
16:30:17.164904,-4,0,-3,-3,1,-5,-16,-3
16:30:17.186890,4,1,5,1,-1,4,-1,1
16:30:17.187889,0,0,0,0,0,1,2,-1
16:30:17.194888,-2,-1,-1,-3,-3,-1,-9,-5
16:30:17.202883,-2,-3,-3,0,1,7,-4,-12
16:30:17.217873,-4,-2,-2,-2,0,-3,-22,-8
16:30:17.224869,0,-4,-2,0,-1,0,0,0
16:30:17.239857,0,0,-3,-4,-3,-2,17,-9
16:30:17.240856,2,-3,0,2,2,-4,-20,4
16:30:17.254848,-1,2,0,1,4,7,8,-1
16:30:17.262846,-3,-1,-1,-1,-3,-3,-1,-1
16:30:17.277833,-3,-1,2,-2,1,1,2,-9
16:30:17.284832,-3,1,1,0,0,-1,5,-6
16:30:17.299822,3,-2,3,1,2,15,17,6
16:30:17.300821,3,-3,-2,2,-1,4,18,10
16:30:17.314814,-8,-2,-2,-1,-6,-6,5,-6
16:30:17.322806,2,3,-1,-1,-4,-18,-26,8
16:30:17.337796,-3,-3,1,-3,2,2,5,0
16:30:17.344795,-3,0,0,-3,-2,0,0,-5
16:30:17.359786,-1,1,-3,0,0,-1,-4,-6
16:30:17.360785,8,0,0,-1,0,3,-5,3
16:30:17.374777,-3,-2,0,-1,-2,-7,-13,-8
16:30:17.382769,-3,-4,-1,1,0,-1,-5,-3
16:30:17.397762,0,0,-2,-3,-3,-5,9,16
16:30:17.412751,-6,-6,0,1,-2,12,12,0
16:30:17.419749,-3,-1,1,-1,-3,-8,-17,-4
16:30:17.420746,-2,1,-4,-4,-3,-2,12,5
16:30:17.442732,1,0,-2,-4,-2,-4,-3,-5
16:30:17.442732,-4,-3,0,-3,1,-4,-5,0
16:30:17.457724,0,0,1,2,1,-4,-11,3
16:30:17.464721,9,0,1,0,6,12,15,8
16:30:17.479711,2,-1,0,1,-1,-2,-7,-3
16:30:17.494703,-1,0,-1,-2,2,3,-2,-4
16:30:17.495702,0,1,-1,1,-6,-4,-26,0
16:30:17.509693,0,1,-1,-3,-2,-3,28,-1
16:30:17.517689,-1,0,0,-2,3,6,11,5
16:30:17.524682,-3,-1,-2,-2,-3,2,10,0
16:30:17.540673,-2,0,-1,1,-3,3,8,1
16:30:17.547668,-5,0,-1,-3,1,0,-1,-2
16:30:17.554665,-1,-4,-2,-1,-2,-11,-11,-2
16:30:17.562660,-2,1,2,0,1,10,12,13
16:30:17.577652,-3,-2,-5,1,-1,-4,-3,-4
16:30:17.584644,-1,-4,-2,-2,-2,-9,-29,-10
16:30:17.599635,-4,-1,1,0,-2,-2,-10,-7
16:30:17.614626,-1,1,-4,-1,0,0,12,5
16:30:17.622624,-5,-2,-1,-2,-3,-2,-13,-7
16:30:17.622624,-8,-3,-2,3,-6,0,0,-6
16:30:17.637615,-1,-1,-4,0,-3,0,0,0
16:30:17.644608,-2,-1,-2,0,-1,-6,-3,-1
16:30:17.659599,1,-2,0,-2,-1,2,3,2
16:30:17.667596,0,0,-1,-3,-3,-7,-7,-3
16:30:17.682588,1,0,1,-1,1,1,0,0
16:30:17.683585,-3,-4,-2,-1,-1,-2,-6,-1
16:30:17.697579,3,-2,0,-2,-3,-3,1,6
16:30:17.704572,-2,-1,-5,-3,1,-4,-5,-2
16:30:17.719562,-3,-1,1,1,-1,0,-1,0
16:30:17.727560,-4,-1,-2,-3,-2,2,-2,-3
16:30:17.742551,6,-1,-1,1,4,5,5,18
16:30:17.742551,-19,-5,-3,-3,-7,-8,-12,-19
16:30:17.764536,0,0,-2,-1,1,-4,-4,-4
16:30:17.765536,-1,1,-5,-3,-3,0,-1,4
16:30:17.780524,-1,-3,-2,-1,0,2,2,-3
16:30:17.787523,-4,0,2,0,1,-3,-1,0
16:30:17.802514,1,0,-1,-1,-3,1,5,0
16:30:17.802514,0,-1,-4,-2,-2,-3,2,-3
16:30:17.817504,9,5,1,-3,0,-1,-26,-5
16:30:17.824497,-5,0,-3,-3,-3,4,-23,-9
16:30:17.847488,-2,-3,-4,-4,-3,-12,-31,-6
16:30:17.848486,-2,-3,-5,-6,-4,-5,-3,-3
16:30:17.862476,4,-1,1,2,3,3,-4,-1
16:30:17.863473,1,-2,-2,-3,2,-6,-5,-4
16:30:17.877467,0,2,-1,1,-4,-4,-10,-10
16:30:17.884462,-2,-3,-4,-2,-3,9,8,0
16:30:17.900453,5,1,0,1,0,0,-8,-6
16:30:17.907449,0,1,-2,-4,0,3,6,10
16:30:17.922440,-5,-1,-3,-2,1,4,-4,2
16:30:17.923436,5,1,-1,-3,0,-2,-4,1
16:30:17.937430,-8,-1,2,1,-1,-6,-15,-10
16:30:17.944426,-3,-3,-5,-1,-1,-1,1,4
16:30:17.967412,4,1,2,-1,0,11,15,7
16:30:17.968408,-1,-4,-3,-3,-4,-6,-8,-1
16:30:17.982400,-9,-5,-4,-2,0,2,-4,-7
16:30:17.983399,-3,0,-2,-1,-2,0,0,0
16:30:17.997392,1,0,0,-2,-1,-1,-1,1
16:30:18.004389,-2,1,-1,1,-1,1,1,0
16:30:18.020377,0,-1,1,-2,0,-4,-4,0
16:30:18.042366,-2,0,7,-12,0,6,7,8
16:30:18.043363,-6,-8,-35,-14,-1,0,-2,-4
16:30:18.043363,-7,-5,-3,17,4,-5,-6,-6
16:30:18.057357,1,4,29,17,1,-3,-2,2
16:30:18.065348,-4,-8,-26,8,2,-1,1,0
16:30:18.080339,-1,1,16,12,-5,-2,-3,-3
16:30:18.087335,1,-2,-7,-7,1,1,1,0
16:30:18.110321,-3,0,12,4,-1,-1,2,0
16:30:18.110321,2,0,-4,5,1,-2,-4,-2
16:30:18.117318,1,1,7,-5,-3,2,0,1
16:30:18.125314,-2,0,-2,5,-1,-2,1,1
16:30:18.140303,5,1,-17,-12,-18,-4,3,1
16:30:18.147298,-2,-4,-3,-40,-1,-12,-2,-5
16:30:18.162292,-2,1,4,9,-56,-1,-3,-3
16:30:18.163289,-5,-2,25,25,-11,-9,-5,-5
16:30:18.185276,1,-2,-19,-33,4,7,0,1
16:30:18.185276,8,9,38,23,-6,8,3,4
16:30:18.200269,-1,-5,5,-48,-20,-7,1,3
16:30:18.207263,10,25,84,103,124,38,13,10
16:30:18.222256,-4,-20,-28,-128,-76,-13,-3,1
16:30:18.223251,2,8,1,44,-62,-4,1,2
16:30:18.245238,-22,-36,26,-128,-63,-14,-18,-16
16:30:18.245238,-1,22,52,127,-98,7,-1,-7
16:30:18.260232,23,53,127,127,127,14,10,15
16:30:18.275222,-18,-91,-114,28,-22,-27,-7,-1
16:30:18.282218,8,35,114,127,-16,27,9,4
16:30:18.283215,20,43,-57,20,-128,26,12,12
16:30:18.297208,-5,-20,-78,127,127,49,-2,-5
16:30:18.305204,-12,19,127,-111,-128,-89,-16,-21
16:30:18.327191,-22,-46,-110,-128,127,-7,-9,-4
16:30:18.328190,-19,-13,16,-65,-128,1,-14,-19
16:30:18.342178,13,-17,-128,-128,-128,-115,-3,8
16:30:18.343178,-38,6,54,127,127,73,-16,-25
16:30:18.357170,61,43,-124,-128,-128,-8,33,42
16:30:18.365167,-37,-52,95,127,127,-55,-22,-21
16:30:18.380155,10,-1,-16,127,-90,-13,12,15
16:30:18.387150,20,47,41,-33,-57,18,8,5
16:30:18.403142,4,2,-6,-128,-114,-18,-4,8
16:30:18.417134,8,18,20,98,64,20,14,8
16:30:18.418132,-8,-28,-10,20,-8,2,0,-7
16:30:18.425130,1,12,2,-59,-5,4,1,2
16:30:18.440121,12,35,109,127,127,53,11,3
16:30:18.447114,-12,-15,-52,-128,-128,-32,-4,3
16:30:18.463106,2,-45,-17,70,-124,-39,-12,-13
16:30:18.470103,8,18,18,-128,-31,7,-9,-6
16:30:18.477095,43,102,67,-102,-118,-26,3,3
16:30:18.485094,-58,-121,-83,-1,127,45,-10,-18
16:30:18.507078,19,69,61,55,-23,17,5,3
16:30:18.508079,57,101,49,100,127,27,7,13
16:30:18.523067,4,39,19,-128,-60,30,7,-5
16:30:18.530063,-17,-45,-22,60,27,31,9,-1
16:30:18.552051,48,74,40,-128,-128,-66,5,20
16:30:18.553051,-29,-38,0,-112,-104,72,-9,-21
16:30:18.560047,11,3,-29,127,-67,-54,-5,-2
16:30:18.568040,59,66,11,82,127,26,22,31
16:30:18.583033,-34,-107,-31,-59,127,-70,0,-3
16:30:18.590029,13,26,15,-128,56,43,8,3
16:30:18.605020,40,99,85,33,-49,24,16,18
16:30:18.606019,-89,-128,-128,45,127,11,-18,-28
16:30:18.620007,52,94,127,127,-128,-6,20,23
16:30:18.627005,31,67,69,-65,-95,50,1,6
16:30:18.642996,-76,-128,-112,-12,127,-31,-22,-27
16:30:18.649992,64,127,127,64,46,21,12,20
16:30:18.665983,-5,-29,88,127,127,25,9,2
16:30:18.671975,32,58,2,-128,75,-8,5,14
16:30:18.679970,-41,-77,-53,50,-74,24,-13,-12
16:30:18.687969,5,2,-14,-15,63,-23,-5,1
16:30:18.702958,29,69,88,127,-122,25,7,5
16:30:18.709955,15,51,40,-90,-107,21,6,6
16:30:18.724946,-2,-6,30,127,16,-27,-6,1
16:30:18.725945,-10,-30,-34,18,68,48,-9,-8
16:30:18.739937,-65,-116,-85,-8,36,-9,-22,-24
16:30:18.747932,15,33,35,79,12,-20,1,6
16:30:18.769918,9,0,-9,13,70,29,5,8
16:30:18.770917,-25,-35,-41,-93,-128,-32,-10,-12
16:30:18.784909,-50,-73,-64,-103,2,-17,-13,-20
16:30:18.785908,6,26,23,-128,-52,3,-5,-1
16:30:18.799897,-25,-45,-42,-45,-128,2,-8,-11
16:30:18.807894,-8,-33,-24,17,16,12,8,6
16:30:18.829881,-10,-21,-9,-11,-57,11,2,-3
16:30:18.830880,-5,-22,-21,93,127,40,4,3
16:30:18.844872,40,72,46,-69,127,-20,13,17
16:30:18.845868,17,55,49,-38,-128,-11,-2,0
16:30:18.859863,9,12,8,7,-128,-6,1,4
16:30:18.867858,-16,-17,-2,-62,-73,-32,-2,-7
16:30:18.882846,-21,-14,4,-102,-128,-85,-19,-20
16:30:18.889841,-21,-12,-36,-96,-128,-83,-16,-14
16:30:18.904835,13,38,0,-128,70,-29,0,5
16:30:18.905832,-1,12,-10,-128,-128,-128,-15,-8
16:30:18.919826,-48,-75,-1,127,-128,53,-14,-23
16:30:18.927817,15,21,9,-128,127,-78,5,8
16:30:18.949807,-7,-16,-24,-88,-128,-24,-3,1
16:30:18.950807,13,14,3,39,-56,-45,5,9
16:30:18.964798,-3,8,28,98,50,34,-1,-3
16:30:18.965797,-63,-110,-48,17,91,65,-19,-31
16:30:18.979786,8,20,6,-66,127,21,0,-2
16:30:18.987784,-5,-10,-23,-23,127,-9,-5,1
16:30:19.002772,-14,-16,-57,-128,-104,-6,-10,-7
16:30:19.009768,7,10,13,24,78,27,1,5
16:30:19.024761,18,34,13,-69,59,15,5,11
16:30:19.025758,-26,-53,-11,83,-21,7,-12,-15
16:30:19.047744,11,27,27,53,-120,-11,3,7
16:30:19.047744,-8,-13,-34,-128,-128,-29,-8,-6
16:30:19.062737,-29,-50,-14,61,127,50,-10,-14
16:30:19.077728,13,17,6,12,61,-31,0,4
16:30:19.084724,2,12,39,111,127,26,-2,2
16:30:19.085724,-5,-10,6,94,127,-31,1,0
16:30:19.107707,14,25,2,1,26,-25,1,6
16:30:19.107707,8,23,24,2,127,-15,3,2
16:30:19.122701,0,11,-13,-128,-128,-58,-5,-2
16:30:19.130696,-51,-98,-63,119,127,127,-11,-24
16:30:19.144687,-11,-25,8,127,127,31,2,-4
16:30:19.145684,14,17,8,33,-99,39,8,9
16:30:19.167673,6,15,-8,-114,-128,-36,-8,1
16:30:19.168672,-11,-9,-7,-83,-128,-35,-6,-7
16:30:19.182664,-22,-27,0,-4,95,-24,-14,-16
16:30:19.189657,-6,-3,27,127,-128,38,-4,-8
16:30:19.204648,-4,4,-11,19,34,36,-4,-5
16:30:19.212645,-35,-71,-56,101,80,62,-2,-11
16:30:19.220641,17,45,30,64,2,12,-3,0
16:30:19.227634,3,-3,-2,-70,-128,-14,4,4
16:30:19.242627,7,25,21,6,127,-7,1,3
16:30:19.250621,1,-18,-36,-87,-56,-11,1,4
16:30:19.265611,20,32,28,127,127,70,13,13
16:30:19.272609,-38,-64,-34,12,-35,-19,-12,-17
16:30:19.280601,9,3,27,119,-128,10,4,3
16:30:19.287599,15,33,45,121,-128,-67,6,8
16:30:19.302590,-22,-41,-35,-30,-55,8,-12,-8
16:30:19.309586,4,14,17,72,36,6,3,1
16:30:19.325576,-11,-16,-14,60,81,7,-3,-10
16:30:19.332572,10,7,-3,4,127,5,2,5
16:30:19.339567,6,-31,15,127,127,15,9,10
16:30:19.355558,20,38,-6,-128,-128,-60,3,7
16:30:19.362550,7,19,-18,-128,-128,-128,-13,0
16:30:19.369548,-14,-4,7,-117,-128,-9,-8,-10
16:30:19.392535,3,7,6,-32,-105,-52,-1,5
16:30:19.392535,1,2,0,127,127,31,2,1
16:30:19.414523,-1,-1,-16,-73,-117,6,3,-4
16:30:19.415522,8,15,5,-37,-128,-30,2,5
16:30:19.422516,1,-6,-6,54,-28,17,1,0
16:30:19.437507,-1,2,4,14,1,2,0,4
16:30:19.444502,1,-3,3,38,18,-5,-5,1
16:30:19.452498,0,-2,-1,-3,-4,-10,-2,-2
16:30:19.475481,-4,-2,-3,-4,0,0,-1,-3
16:30:19.475481,0,1,-1,1,2,-7,2,-1
16:30:19.482480,6,13,9,6,6,5,-4,-30
16:30:19.490471,-9,-10,-3,3,12,23,8,50
16:30:19.513457,8,12,15,15,23,30,19,-7
16:30:19.513457,16,5,-11,-12,-14,-16,127,-27
16:30:19.527452,-114,-21,5,9,18,39,127,-35
16:30:19.528448,29,-5,-14,-20,-4,15,127,-5
16:30:19.542443,122,-42,-4,0,-23,-20,87,58
16:30:19.550435,61,48,18,17,8,78,127,92
16:30:19.565431,127,91,24,25,-17,-32,127,-111
16:30:19.572424,-128,-82,-5,4,27,18,-123,-84
16:30:19.587415,22,24,-1,3,3,-24,113,-15
16:30:19.588414,-1,10,9,-22,22,23,-12,-3
16:30:19.602406,-23,-9,-17,-42,-41,-36,-45,30
16:30:19.625391,-3,26,18,-39,127,45,-14,14
16:30:19.625391,-7,-61,-31,-57,-18,51,-2,-5
16:30:19.632387,-115,-58,17,-128,-128,-102,-38,-80
16:30:19.647375,7,35,25,86,127,42,0,3
16:30:19.648374,-70,-9,-20,-128,-96,-17,-20,-61
16:30:19.662368,50,15,19,85,-3,-43,-16,-32
16:30:19.670360,-111,-36,42,127,127,7,12,-35
16:30:19.692350,-32,-15,-6,22,-128,-67,-51,-36
16:30:19.693349,-15,-5,-106,-128,115,-6,37,5
16:30:19.707341,-13,43,-1,-3,-128,-35,1,-5
16:30:19.708340,127,-75,22,-78,-36,38,67,42
16:30:19.722329,7,8,5,19,-53,6,-25,4
16:30:19.730324,-74,-2,2,27,-74,14,-28,-84
16:30:19.745317,79,23,18,106,-128,43,-14,127
16:30:19.752312,-38,-7,27,6,-128,-4,-8,-50
16:30:19.767304,-9,-6,-22,51,127,29,10,-8
16:30:19.768301,5,5,4,34,127,3,-17,6
16:30:19.782294,15,-2,20,17,56,0,-39,5
16:30:19.790287,15,-15,-35,-58,33,5,-92,74
16:30:19.805281,38,34,17,127,127,7,43,-20
16:30:19.812276,-48,-8,-9,-22,57,-39,-32,-29
16:30:19.828263,-19,-4,-78,-80,26,3,20,-4
16:30:19.828263,-15,-8,29,82,58,-15,-10,-15
16:30:19.842254,0,2,9,21,127,4,-7,-2
16:30:19.850253,9,1,-24,-128,40,-10,-8,-9
16:30:19.865244,4,-6,17,43,26,7,11,1
16:30:19.872238,48,2,33,26,-18,10,9,78
16:30:19.887230,4,7,-22,-44,-52,3,19,-4
16:30:19.888229,4,9,-4,72,74,17,5,2
16:30:19.910214,1,9,32,-83,-78,-10,-1,-3
16:30:19.910214,-12,-8,-6,12,-128,-8,1,-6
16:30:19.925204,32,-20,-5,-42,-18,-13,-5,-5
16:30:19.932203,1,9,6,62,127,12,12,-3
16:30:19.947193,-6,-5,-37,-7,108,-24,8,-36
16:30:19.948190,55,3,0,63,30,20,41,65
16:30:19.970176,-4,3,-3,-19,-31,5,7,-7
16:30:19.971180,-17,2,-5,-4,-128,-17,-17,-4
16:30:19.985170,7,-4,-2,42,40,10,19,6
16:30:19.992163,-16,-9,5,37,-62,-10,-5,-17
16:30:20.007156,1,12,5,-109,-31,-3,-11,-14
16:30:20.008155,-2,-3,-5,33,65,-17,-7,-2
16:30:20.023145,2,1,2,-5,52,23,8,-3
16:30:20.030141,-8,1,0,5,125,2,-35,3
16:30:20.052129,-11,0,9,16,66,-9,-2,-9
16:30:20.053128,-4,-2,-5,2,18,9,-10,-15
16:30:20.067119,9,1,5,20,-1,7,9,19
16:30:20.068116,-4,-5,-6,-20,-12,-9,-2,-3
16:30:20.083110,3,4,3,7,2,9,1,1
16:30:20.090102,-1,-2,-7,44,120,-3,4,-6
16:30:20.105096,2,1,3,-9,-1,-1,7,2
16:30:20.112089,3,4,11,25,31,10,3,-3
16:30:20.127082,-15,-1,-3,5,-78,-12,-11,-16
16:30:20.128083,-2,-5,-4,-4,3,-10,-27,16
16:30:20.142073,-1,0,-2,-9,-5,-2,7,2
16:30:20.150069,-6,-4,-4,9,-2,7,33,-8
16:30:20.165059,4,-3,1,2,0,-11,5,19
16:30:20.172057,-1,1,1,-53,-128,2,-1,-4
16:30:20.187042,-12,-9,-7,1,0,-11,-10,-14
16:30:20.188045,1,2,-2,6,14,6,3,-1
16:30:20.203034,4,3,-1,-2,-11,-4,-1,2
16:30:20.218026,-3,0,0,0,-13,1,-4,-8
16:30:20.225022,0,-1,-2,-1,-4,0,0,-4
16:30:20.233017,-4,-5,-2,-4,-4,1,-5,-5
16:30:20.248005,2,2,1,0,1,1,-2,1
16:30:20.248005,-3,-3,-1,-2,-2,-2,-3,-5
16:30:20.269995,3,2,1,3,-4,-5,0,4
16:30:20.269995,-2,1,0,-4,-6,-6,-2,-1
16:30:20.284983,-5,-4,-2,-7,-9,-7,-5,-6
16:30:20.291984,-6,-3,-4,-4,0,-3,-2,-4
16:30:20.307968,-2,-1,0,-3,-6,-8,-3,-3
16:30:20.314967,-5,-3,-4,-1,-2,-7,-9,-3
16:30:20.322962,-2,-1,-2,-4,-2,7,-1,-1
16:30:20.337949,-1,1,-4,0,-3,2,8,8
16:30:20.344949,-2,-1,-1,-1,-1,-4,-20,-7
16:30:20.352941,-1,4,1,1,5,18,28,19
16:30:20.367934,-1,-1,-1,-3,-2,-1,0,-1
16:30:20.374930,2,-6,-4,-2,1,3,-13,-2
16:30:20.382924,-3,-2,-4,-6,2,1,5,-3
16:30:20.389918,-2,1,-2,-4,0,-2,-4,-4
16:30:20.404912,1,-3,-3,-2,-2,-6,-4,-2
16:30:20.412903,-5,-4,-2,-4,-3,8,0,-4
16:30:20.427897,-4,-3,-3,-4,-1,-12,-2,9
16:30:20.442886,4,1,-1,1,-4,1,27,31
16:30:20.449884,-6,0,0,-4,-2,-3,-6,-9
16:30:20.450883,-4,-2,-4,-2,-1,-17,-29,-5
16:30:20.464875,-3,2,1,1,0,-2,6,-2
16:30:20.472868,-3,-1,-2,-2,4,6,-14,7
16:30:20.494856,-1,0,-3,-2,-3,-9,-7,-7
16:30:20.495855,3,1,1,2,1,6,10,8
16:30:20.509847,-4,-3,-4,-3,-2,-2,-7,-10
16:30:20.510846,0,2,1,1,3,12,18,19
16:30:20.524838,-1,0,1,1,0,6,15,1
16:30:20.532833,10,1,-1,0,-1,2,7,2
16:30:20.547824,-4,1,-1,-1,-3,-6,-14,-7
16:30:20.554819,-1,-3,-4,-4,1,0,6,6
16:30:20.577805,-2,1,2,0,3,0,-6,0
16:30:20.577805,-3,-3,-1,-4,2,5,3,1
16:30:20.584799,4,-1,-3,-2,-1,-1,-3,1
16:30:20.592796,-2,-5,-3,-2,-1,2,-1,5
16:30:20.607787,-2,-3,1,0,1,-7,4,-5
16:30:20.614780,4,4,1,2,-3,-6,-8,9
16:30:20.629773,-3,-3,1,-2,-2,-4,-9,-4
16:30:20.630772,-4,-2,1,2,2,-6,3,-7
16:30:20.644762,10,0,-4,-4,-1,-5,-9,18
16:30:20.652759,-3,-2,1,3,1,4,1,-6
16:30:20.667749,-5,-3,-1,-1,-1,-1,5,-5
16:30:20.674742,-3,2,1,-3,2,-5,-5,-13
16:30:20.689736,1,-3,-4,-3,-2,-7,-7,0
16:30:20.690735,3,2,-1,-4,2,0,4,9
16:30:20.704724,2,-1,3,-3,-1,-2,-3,0
16:30:20.712719,0,2,3,1,10,11,4,1
16:30:20.727710,-4,-4,-3,0,-1,-5,-3,-4
16:30:20.734706,2,-3,-1,-2,-1,-14,-22,10
16:30:20.749699,-2,-4,1,0,2,4,3,-2
16:30:20.750699,3,2,3,1,5,3,0,7
16:30:20.764688,-7,-4,0,0,-3,-4,2,-1
16:30:20.772683,3,0,2,4,4,4,8,6
16:30:20.787676,3,2,-2,0,0,-5,-3,0
16:30:20.802666,-3,-3,-2,0,1,-4,-17,-16
16:30:20.809660,1,-1,-5,-2,-3,-5,-12,5
16:30:20.810661,-4,-1,0,-2,-1,-1,-4,-10
16:30:20.824651,-4,-2,-2,-3,-4,-8,-24,-10
16:30:20.839641,3,1,3,1,4,9,-3,4
16:30:20.847639,-2,-3,-3,-2,-1,-1,6,0
16:30:20.854632,-4,0,-3,-2,-1,1,-15,-13
16:30:20.869622,-2,-2,-4,-3,-5,6,15,9
16:30:20.870622,-6,0,-2,-1,-1,-2,-4,-6
16:30:20.884613,3,-3,-1,-3,-3,2,-6,-2
16:30:20.892611,-9,-6,-2,-1,-3,-2,-4,-7
16:30:20.907602,-4,0,-1,-2,-3,0,9,-4
16:30:20.914595,-7,0,-1,1,2,3,8,-1
16:30:20.929588,1,1,-1,-1,0,-2,-1,6
16:30:20.930585,0,-2,2,1,-3,1,3,0
16:30:20.945576,1,0,1,4,9,4,9,1
16:30:20.952574,-4,1,1,1,2,0,-5,0
16:30:20.967565,1,2,-4,-1,-4,-2,-5,0
16:30:20.974561,2,1,1,0,0,-5,-4,11
16:30:20.989549,12,2,0,-3,0,-7,-16,9
16:30:20.990548,-6,-2,1,-1,-1,6,3,-8
16:30:21.005542,-4,0,-1,1,5,-1,-9,-12
16:30:21.020532,-2,-2,0,-2,0,6,-5,-2
16:30:21.027528,-4,-1,-1,-3,-2,-7,-4,-7
16:30:21.035521,1,-2,-2,-4,-3,-12,-25,0
16:30:21.050520,-4,-1,-1,-1,-3,-5,12,6
16:30:21.050520,-1,-4,-4,-2,-1,-2,-15,-6
16:30:21.065506,-1,0,2,-2,0,0,2,2
16:30:21.072501,2,2,-1,-1,0,-5,-13,-5
16:30:21.087491,-2,0,0,2,-4,-1,3,-3
16:30:21.102482,-4,-2,-1,-2,-1,-2,0,0
16:30:21.109474,-1,1,0,2,-1,1,0,-5
16:30:21.110477,4,0,0,-1,-5,9,2,8
16:30:21.125468,-4,-2,-2,0,-5,-16,-41,-10
16:30:21.132461,3,1,2,0,0,-4,6,11
16:30:21.147451,-1,-3,-1,1,3,3,3,-2
16:30:21.155446,2,-1,2,-3,0,-1,-5,0
16:30:21.170440,3,0,-1,0,1,0,6,11
16:30:21.170440,0,-2,-1,-1,0,-3,2,1
16:30:21.185429,0,0,0,-2,1,-4,-5,-4
16:30:21.192427,1,-3,0,-4,-1,1,17,-1
16:30:21.207418,4,-1,-1,-3,-1,-2,-5,3
16:30:21.215410,-6,-2,-4,-2,0,-1,-4,-4
16:30:21.230400,1,1,4,3,2,2,0,-4
16:30:21.230400,-1,2,0,0,-6,-17,-17,9
16:30:21.245391,3,2,1,-1,-1,7,15,3
16:30:21.252390,-1,-4,1,0,2,-2,2,-3
16:30:21.275375,-4,-1,0,0,-1,-7,-3,-14
16:30:21.275375,11,3,0,0,6,0,-9,19
16:30:21.290363,2,0,1,-2,-2,-6,-17,-2
16:30:21.297362,1,1,-2,-2,-3,-1,-5,-1
16:30:21.305357,-4,-1,0,-2,2,-5,9,2
16:30:21.312353,1,-1,3,1,1,6,0,1
16:30:21.327344,1,-2,-1,-4,-4,-2,27,-1
16:30:21.335336,1,1,3,3,8,9,3,4
16:30:21.350330,3,0,2,4,0,-6,10,3
16:30:21.357325,-4,-3,-3,1,-2,-3,-2,-13
16:30:21.365318,2,-1,0,0,-1,-1,-8,-4
16:30:21.380311,-3,-3,-2,-3,-2,-3,-14,-4
16:30:21.387307,2,0,-1,-3,-4,1,4,0
16:30:21.395301,-1,-1,-1,-4,0,-2,0,-2
16:30:21.410292,-9,-4,-1,-1,-1,2,-21,-11
16:30:21.417287,3,-1,1,-1,-1,6,18,15
16:30:21.432279,-2,0,0,5,2,1,0,-6
16:30:21.433278,2,-4,-3,0,1,3,17,20
16:30:21.447269,-7,-9,-3,-2,-2,-3,-3,-1
16:30:21.455263,0,-4,0,1,-2,-2,-5,-5
16:30:21.470256,-3,3,0,0,0,3,6,2
16:30:21.477249,-1,2,-3,0,3,3,3,2
16:30:21.492242,-2,0,1,-1,2,-5,-14,-7
16:30:21.493242,-3,-2,0,-3,0,-1,-31,-13
16:30:21.507230,0,-3,-3,1,1,-1,3,-3
16:30:21.515228,0,0,4,3,2,2,16,5
16:30:21.530219,-2,-3,-2,-2,-2,-4,-8,-7
16:30:21.537211,-9,-2,-2,0,0,2,-3,-4
16:30:21.552205,0,-2,1,0,-1,3,5,3
16:30:21.553204,1,-1,5,6,15,10,3,4
16:30:21.568196,9,0,-3,-4,2,-3,-4,21
16:30:21.582185,-5,-5,-4,-2,0,-2,-1,-7
16:30:21.590182,-4,-3,0,-2,-2,-2,6,0
16:30:21.597175,-3,-1,-1,-2,-2,-7,-35,-7
16:30:21.612168,2,-4,0,-1,-1,0,6,1
16:30:21.613166,-6,1,1,0,0,1,0,-4
16:30:21.635154,-1,-3,-1,-1,0,4,5,13
16:30:21.635154,1,-1,0,1,1,3,1,5
16:30:21.650145,-3,2,2,-2,0,2,3,-6
16:30:21.657138,-1,-3,-3,-2,-1,-2,1,7
16:30:21.673128,-2,-1,-2,-1,2,0,12,-4
16:30:21.673128,1,0,0,3,4,-11,-44,-3
16:30:21.688120,0,1,1,-4,-4,0,3,-7
16:30:21.695117,3,2,-1,2,2,2,0,1
16:30:21.710108,-5,-2,-2,-2,1,1,2,-8
16:30:21.718102,-2,0,0,2,0,3,-3,-6
16:30:21.733094,-5,-4,-2,-3,-5,-14,-8,-2
16:30:21.733094,2,-2,-3,0,0,1,-9,4
16:30:21.748082,-2,-4,-5,-4,-3,-4,-1,-5
16:30:21.755081,-3,-1,-4,0,-1,-13,-13,-3
16:30:21.770071,-4,-2,-3,-6,-5,-1,-12,-8
16:30:21.777067,1,1,-1,1,-3,-11,-29,0
16:30:21.793054,-2,0,-5,0,-2,-1,4,-5
16:30:21.793054,-3,-3,-5,-2,-1,1,3,-2
16:30:21.808047,-4,0,-2,-2,0,-1,-4,-8
16:30:21.815044,-3,-4,-1,-3,-1,-1,3,-4
16:30:21.830031,0,-1,1,-1,-1,-6,1,10
16:30:21.838028,11,2,2,1,2,5,8,17
16:30:21.852018,-10,-3,-3,-1,-5,-9,-23,-19
16:30:21.853018,2,8,3,0,1,-6,-9,11
16:30:21.868011,-5,-3,-2,-3,-4,-4,2,-6
16:30:21.904986,4,1,-4,-2,-1,4,14,9
16:30:21.905986,-3,-5,-1,-1,2,1,-6,-7
16:30:21.905986,0,-5,-3,-7,-4,-3,-3,-7
16:30:21.919976,-2,-3,-2,-1,-2,-7,-2,0
16:30:21.920979,3,-1,2,0,-4,4,-2,2
16:30:21.934968,-1,-2,-3,2,2,0,-11,-7
16:30:21.935969,2,1,-2,-2,-3,10,13,1
16:30:21.949960,-1,-3,-1,-2,-2,-2,7,1
16:30:21.957956,-1,1,-3,-1,-3,-2,1,-5
16:30:21.972943,-2,-1,-1,-4,-1,-3,-9,-5
16:30:21.972943,-4,-3,0,-3,-5,-6,-15,-9
16:30:22.002928,0,-1,-3,2,0,2,-5,-5
16:30:22.002928,3,-1,-3,-4,-1,-13,-5,-3
16:30:22.009923,-4,0,-1,1,0,1,10,-11
16:30:22.017916,-3,1,0,-1,-1,-1,-17,-2
16:30:22.032908,-5,-3,-5,-4,0,4,8,-6
16:30:22.032908,-1,4,6,4,3,-3,-3,1
16:30:22.047897,2,1,-1,-2,-2,1,7,0
16:30:22.054896,-2,-4,0,-1,-4,-3,-11,-5
16:30:22.069887,-1,0,-2,0,0,-1,-10,-13
16:30:22.076881,-1,2,0,0,-1,-1,-4,-2
16:30:22.092872,-1,3,-2,0,5,5,3,3
16:30:22.092872,-2,-4,-1,-2,-2,-1,14,1
16:30:22.107863,0,1,1,3,2,-4,-20,0
16:30:22.114859,-2,-1,-3,-1,1,-8,-31,-1
16:30:22.129850,-1,-4,-5,-1,-3,1,15,-8
16:30:22.137845,3,-1,-3,-1,2,9,4,6
16:30:22.159831,-8,-1,0,3,-3,-6,-10,-6
16:30:22.160828,-5,-6,0,-3,-3,1,28,27
16:30:22.167824,0,-5,-1,1,-4,-5,-9,-10
16:30:22.174822,-1,-1,1,1,0,-13,5,-9
16:30:22.189812,0,1,3,0,-1,1,-11,1
16:30:22.197808,-3,0,0,1,-2,1,-13,-3
16:30:22.212796,-4,-1,-2,-2,0,-6,-4,-2
16:30:22.219791,-5,-2,-4,-5,-1,-3,1,-3
16:30:22.227790,2,-1,-3,-2,-3,-7,5,-2
16:30:22.234784,5,0,3,1,2,9,21,22
16:30:22.249775,-2,-1,-2,-4,-1,-6,-7,-8
16:30:22.257769,-5,-3,-2,-4,-1,6,-6,-5
16:30:22.272762,-3,2,2,2,3,-3,-40,7
16:30:22.287750,0,-1,-1,0,1,-1,0,-4
16:30:22.287750,-5,-3,-2,1,5,0,0,-8
16:30:22.302741,-1,-3,-5,-2,-3,5,7,2
16:30:22.317732,-4,-3,-4,0,-4,-9,-6,-10
16:30:22.317732,-2,-3,1,2,2,-3,-10,-3
16:30:22.332725,2,-2,-1,-2,-1,1,10,10
16:30:22.339717,-2,3,2,-1,4,2,-22,1
16:30:22.354711,-2,-3,-3,2,-2,4,12,-4
16:30:22.355711,-11,-4,-5,-3,4,4,4,-1
16:30:22.369699,0,-5,-2,0,-6,0,-1,-5
16:30:22.377697,0,-1,-3,0,-4,-11,-7,-1
16:30:22.392688,1,-2,0,-1,4,3,2,5
16:30:22.399681,-4,-4,-1,-4,-4,-5,-11,-7
16:30:22.414672,0,1,1,4,-2,-2,-3,-1
16:30:22.415674,0,0,0,-2,1,-6,-27,-1
16:30:22.430665,-4,4,0,-3,-3,-3,35,7
16:30:22.437660,-4,-2,-2,0,3,-1,-5,-3
16:30:22.452651,0,1,2,0,-1,0,1,2
16:30:22.467640,-4,0,1,-1,-1,-3,2,-8
16:30:22.474635,-1,-2,-1,0,2,0,1,0
16:30:22.475633,-6,-1,-3,-1,-4,-9,-18,-9
16:30:22.489626,3,0,-2,-1,-4,0,8,11
16:30:22.497624,0,2,-1,0,-1,-11,-35,-6
16:30:22.527605,-1,-2,0,-3,1,9,22,-6
16:30:22.527605,0,-1,0,0,-5,1,0,-1
16:30:22.534598,-1,-1,2,2,4,3,2,-6
16:30:22.535597,1,4,0,-2,-7,-3,4,16
16:30:22.550591,-5,-4,-4,-3,-2,-3,0,0
16:30:22.557587,-5,-1,3,-1,-1,0,-3,-4
16:30:22.572574,3,2,0,1,0,6,15,4
16:30:22.579570,-5,0,1,3,2,-7,-24,-3
16:30:22.595560,11,-2,-3,-2,1,9,4,14
16:30:22.595560,-3,-1,-1,-1,2,-2,-7,-3
16:30:22.609554,-2,-5,-4,0,-5,-6,-7,-13
16:30:22.617546,4,-2,-4,-2,-3,7,12,14
16:30:22.632540,4,3,2,4,2,1,-1,8
16:30:22.640536,-3,-1,-2,-2,-1,-1,-4,-4
16:30:22.655523,-4,-2,0,0,-3,-6,-5,-12
16:30:22.655523,-3,2,0,-2,-2,1,9,-1
16:30:22.670517,0,-1,-1,-2,-1,0,2,-5
16:30:22.677513,-1,1,1,-1,0,7,9,3
16:30:22.692503,-1,-1,-2,-2,-1,-3,11,8
16:30:22.700497,4,1,-1,3,4,7,9,2
16:30:22.715487,2,1,0,0,3,-3,-4,2
16:30:22.715487,9,1,-1,1,-5,-5,-6,1
16:30:22.730477,-2,0,0,1,-1,-9,-10,-8
16:30:22.737476,2,-2,1,-2,0,-8,-19,7
16:30:22.752467,-1,3,1,1,0,-1,-8,-6
16:30:22.759464,-1,0,0,-3,1,5,28,3
16:30:22.775450,0,0,1,-1,0,1,-6,-6
16:30:22.775450,3,1,-2,-1,1,3,2,2
16:30:22.790440,-7,-2,-2,-2,0,-5,-6,-5
16:30:22.797436,-3,-2,-4,-3,0,3,18,6
16:30:22.812429,1,4,-1,1,-1,3,-1,-4
16:30:22.820423,1,-1,2,1,2,-2,-5,-1
16:30:22.842410,-1,2,0,0,0,-8,-24,-4
16:30:22.843410,-10,-3,-4,-3,-5,-9,-15,-19
16:30:22.850406,4,0,1,-2,-2,4,-1,2
16:30:22.857402,-5,-1,3,0,0,0,-10,-10
16:30:22.872393,-2,1,2,1,3,2,0,-1
16:30:22.880385,-3,-2,1,3,6,4,-2,2
16:30:22.895375,-1,-1,-3,-4,-4,3,13,0
16:30:22.895375,4,-1,-1,-2,2,7,4,10
16:30:22.910366,3,-1,3,0,-4,-4,-28,1
16:30:22.917363,-2,-3,1,1,3,4,0,3
16:30:22.932356,-1,-2,-3,-1,0,-4,18,5
16:30:22.940349,-6,-1,-1,-2,1,0,-3,-3
16:30:22.962337,-4,-2,-1,-1,-1,-2,2,-2
16:30:22.963335,4,3,1,3,6,-1,0,8
16:30:22.970332,-12,-6,-5,-2,-5,-3,2,0
16:30:22.977328,-4,0,0,0,-3,-1,0,-8
16:30:22.992318,-2,-1,-1,-4,-3,2,11,-5
16:30:23.000314,-5,-2,-2,-5,-2,-3,-11,-4
16:30:23.015302,-4,-4,-3,0,-1,-9,2,-8
16:30:23.015302,-3,-1,-1,1,-1,-6,1,2
16:30:23.030295,3,2,-2,2,-1,-4,-1,-1
16:30:23.045286,-4,-3,0,-3,0,1,-5,-6
16:30:23.060276,2,4,0,2,5,5,20,12
16:30:23.061276,-4,-4,-3,-3,0,-2,-2,-4
16:30:23.075265,4,1,1,-3,-1,-8,9,8
16:30:23.075265,0,0,-1,-1,2,-19,-30,11
16:30:23.090255,-1,-1,1,-1,0,-4,13,9
16:30:23.097251,3,0,1,-3,-1,-1,2,-3
16:30:23.112244,-9,-4,1,0,-2,-1,-4,-13
16:30:23.120240,4,-1,2,3,4,10,10,13
16:30:23.135228,-7,-4,-2,-1,0,5,13,-17
16:30:23.135228,0,0,-2,-4,0,-5,-15,-12
16:30:23.150221,7,2,3,2,1,-4,11,26
16:30:23.157214,1,1,-1,4,-1,-11,-11,-1
16:30:23.172205,7,0,1,-1,1,3,-3,20
16:30:23.180200,-1,-3,-1,-2,3,1,8,3
16:30:23.195194,1,0,1,-1,-2,-1,-11,-6
16:30:23.202187,-1,-1,1,1,-3,0,0,-1
16:30:23.210182,-4,-1,-2,1,-2,-2,3,-11
16:30:23.217178,4,-1,0,-2,3,6,3,12
16:30:23.233170,-7,-5,-4,0,-5,-4,7,-16
16:30:23.240166,-4,0,-2,1,0,9,46,-7
16:30:23.255157,-8,-2,-1,0,-6,-5,-18,-11
16:30:23.270148,-1,-1,2,-3,4,2,6,9
16:30:23.277143,-2,-1,-5,-4,-1,-8,-21,-3
16:30:23.278143,6,0,-1,-2,2,5,16,22
16:30:23.292132,2,2,-1,0,1,10,15,-3
16:30:23.300130,0,-2,0,-1,-5,-6,2,2
16:30:23.315120,-4,-2,-2,0,0,4,2,-2
16:30:23.322113,1,-2,0,-3,0,-3,-2,-2
16:30:23.337108,-10,-6,-6,-4,-1,-12,-34,-17
16:30:23.338103,1,-1,-1,2,-3,0,1,4
16:30:23.360092,-4,-5,-1,-2,-6,-6,-17,-6
16:30:23.360092,-4,-6,-3,-3,2,6,-10,5
16:30:23.375083,-3,-5,-1,-1,-5,-6,13,3
16:30:23.383078,-6,0,-3,0,-2,-4,-1,-5
16:30:23.398069,-2,-4,-4,-1,-2,-2,0,-1
16:30:23.398069,1,-1,-3,0,0,-13,-12,12
16:30:23.413057,-6,1,-2,0,3,-4,0,-4
16:30:23.420055,1,1,1,-1,0,-10,-28,11
16:30:23.435046,-5,1,-2,-1,-2,-3,3,-12
16:30:23.443040,3,2,-1,0,4,9,16,13
16:30:23.457030,-1,-3,0,1,-5,4,-6,-6
16:30:23.458032,-3,0,0,-1,-3,0,5,1
16:30:23.473020,-6,-5,-1,-3,-2,1,25,-13
16:30:23.480015,4,3,0,-1,-2,1,17,16
16:30:23.495008,-7,-2,-2,0,-3,-21,-9,-4
16:30:23.503001,3,-1,0,1,-1,-9,-14,14
16:30:23.517993,-2,-3,-2,-1,-4,3,3,0
16:30:23.517993,-2,-2,-1,-1,-1,0,6,-1
16:30:23.532983,-1,-1,0,-2,-2,0,-3,0
16:30:23.539981,-3,-2,-2,-2,1,5,8,-1
16:30:23.554973,7,3,2,1,2,12,14,9
16:30:23.562967,-3,-7,-5,-3,-2,2,20,6
16:30:23.577958,15,3,3,2,5,3,-39,8
16:30:23.577958,-9,-2,-3,-2,-5,-5,-1,-14
16:30:23.592946,0,0,4,1,2,12,18,-13
16:30:23.599945,-4,2,-1,0,3,-5,-22,-5
16:30:23.614936,-3,2,1,1,0,-4,8,2
16:30:23.622927,-1,-3,-3,-1,0,12,15,4
16:30:23.637921,3,-1,-3,-3,-4,-3,0,19
16:30:23.637921,-3,-4,-1,0,-3,-5,-3,-2
16:30:23.659908,-4,2,5,1,3,1,16,-12
16:30:23.660905,-5,-1,-4,-3,0,1,1,-2
16:30:23.674899,-2,1,0,2,2,-2,0,-8
16:30:23.682890,-3,-2,-3,-2,1,-1,1,-4
16:30:23.704880,2,-1,-5,-2,-5,0,-5,14
16:30:23.705876,6,0,0,2,1,6,36,32
16:30:23.712873,-7,-2,0,-2,-1,-5,-2,-18
16:30:23.727864,-5,-4,-1,-1,-4,-6,-30,0
16:30:23.734862,-1,0,2,0,1,3,5,1
16:30:23.742854,-1,1,0,0,-2,-1,1,-1
16:30:23.757845,-5,-3,-1,-2,-4,-10,10,-7
16:30:23.757845,5,4,1,2,7,13,-2,6
16:30:23.772836,9,7,1,1,3,-2,1,8
16:30:23.779834,1,-3,-4,-3,0,3,24,7
16:30:23.794825,-6,-1,0,-3,0,-8,-15,-11
16:30:23.802820,-1,-1,1,1,-1,2,-13,-13
16:30:23.817808,-2,1,-1,-1,-1,2,-2,-5
16:30:23.817808,-6,-4,-1,-2,-7,-3,3,-9
16:30:23.832802,2,-2,-2,-2,1,4,3,7
16:30:23.839797,-4,1,-3,-1,-4,-9,-1,-4
16:30:23.854786,0,-2,-3,-1,0,0,3,-4
16:30:23.862785,2,3,0,0,6,9,5,19
16:30:23.877770,-1,0,-2,-3,-5,-12,-33,-11
16:30:23.877770,-9,-7,-6,-2,3,1,4,-5
16:30:23.892761,-7,-1,-3,-2,-2,-6,-19,-11
16:30:23.899759,2,0,-2,0,2,7,20,9
16:30:23.914750,-11,0,-4,-5,0,-1,-8,-8
16:30:23.922746,0,-3,0,-1,2,-5,2,-2
16:30:23.937734,-2,0,-2,-1,2,1,3,-6
16:30:23.937734,-3,0,1,3,5,6,23,-3
16:30:23.952728,4,0,3,3,1,1,-2,6
16:30:23.959722,-3,-1,-2,-2,2,-2,-7,-2
16:30:23.974711,2,0,0,4,-1,-1,-1,-1
16:30:23.982709,4,2,1,1,2,0,-2,6
16:30:23.997697,1,-3,-3,-3,1,2,-3,-1
16:30:23.997697,-2,-2,2,-1,4,6,8,-1
16:30:24.012690,0,3,-3,-1,0,0,-22,-7
16:30:24.019684,6,0,1,-1,-1,2,7,3
16:30:24.034675,-3,-1,-4,-3,-1,-6,-11,-4
16:30:24.050668,-3,0,-2,0,-2,0,38,-6
16:30:24.057660,4,1,-2,1,-2,-1,-1,5
16:30:24.057660,-5,0,-1,1,2,-1,-10,-11
16:30:24.072654,-4,-4,-1,-1,-5,-8,-9,-6
16:30:24.079647,1,1,0,0,3,2,-15,-3
16:30:24.094638,-3,-2,-1,-1,-1,-7,-16,-5
16:30:24.102635,4,0,0,-2,4,7,-3,25
16:30:24.117624,9,4,5,4,4,-1,-5,3
16:30:24.124619,-1,-4,-5,-2,-3,0,16,6
16:30:24.132617,-4,-4,-2,-1,0,-5,-14,-21
16:30:24.154602,3,1,-3,1,0,5,-1,4
16:30:24.155600,-5,-5,-3,-3,-1,6,-4,-8
16:30:24.162595,-5,-1,0,-1,0,-5,3,-3
16:30:24.177589,-1,1,-2,1,-5,-5,5,4
16:30:24.184582,1,-1,-1,1,3,-10,-33,-5
16:30:24.192580,-2,3,3,1,0,-1,-11,-3
16:30:24.199573,-7,-5,-3,-2,-4,1,-3,-1
16:30:24.215563,2,0,-2,-2,1,5,5,-5
16:30:24.222562,-6,-4,-6,-4,-7,-9,-20,-4
16:30:24.237552,1,4,1,1,1,3,-1,8
16:30:24.244548,-5,-1,-1,-1,-1,-2,2,-6
16:30:24.259536,-1,0,-3,0,-3,-4,-9,0
16:30:24.260538,-6,-5,-1,-3,-2,0,-5,-3
16:30:24.275529,0,-2,-2,0,2,3,1,-6
16:30:24.282524,-1,0,-2,-5,-3,-5,3,2
16:30:24.297515,-4,-3,-1,-2,0,3,10,12
16:30:24.305512,-1,0,-1,-3,-1,6,-5,-9
16:30:24.320499,2,-1,1,-1,-5,-7,-8,-3
16:30:24.320499,1,-1,-1,-2,-4,-5,-3,0
16:30:24.335492,0,-4,-3,0,-1,-1,-1,1
16:30:24.342488,-1,2,5,1,2,6,-9,-1
16:30:24.357476,-1,-1,0,-2,-3,-7,-8,-3
16:30:24.365475,-2,1,0,0,-2,0,-3,-8
16:30:24.380462,6,-3,3,-3,0,-3,1,7
16:30:24.380462,0,-3,-2,-4,1,-4,6,-3
16:30:24.395452,0,-2,2,0,4,4,-1,-3
16:30:24.410444,-3,-3,0,-1,-2,-9,-6,-9
16:30:24.417442,4,-3,-1,-2,-1,0,-9,4
16:30:24.425437,-4,0,0,3,5,2,0,4
16:30:24.440424,-5,-2,0,-2,-1,-10,-23,1
16:30:24.440424,0,-2,-1,-2,0,2,6,-4
16:30:24.462411,0,0,-1,1,1,-1,-7,-7
16:30:24.463410,-2,-1,2,-1,5,14,4,7
16:30:24.477405,-8,-2,-1,-1,-2,-4,-1,-4
16:30:24.485397,-6,-4,-2,-2,0,0,-2,-12
16:30:24.500389,5,0,0,0,-5,-6,18,26
16:30:24.500389,-1,1,-3,-2,-2,-1,-11,-1
16:30:24.515380,-1,1,2,0,-2,6,1,5
16:30:24.522377,-4,0,-3,-3,-1,1,4,0
16:30:24.537368,-4,-4,-2,0,-1,-6,-17,-3
16:30:24.552358,2,-1,-1,-1,-1,2,13,9
16:30:24.559354,0,0,1,1,5,5,-2,-2
16:30:24.560353,-4,-2,1,-2,1,6,-10,-6
16:30:24.575341,-2,3,-1,-1,-3,1,-1,3
16:30:24.582340,0,-1,-1,0,2,4,8,9
16:30:24.597331,2,1,-4,-2,2,-9,-31,0
16:30:24.605326,-3,-1,0,0,-3,-8,-13,-4
16:30:24.620314,-3,0,-1,-2,-4,-5,3,-3
16:30:24.635305,2,1,1,0,4,-1,-5,6
16:30:24.635305,-7,-3,-2,-4,-3,5,-5,-11
16:30:24.642302,-4,-3,-2,1,-2,2,4,2
16:30:24.657293,-5,2,-1,1,-1,-9,-28,-12
16:30:24.665286,0,0,-3,1,3,-4,-18,9
16:30:24.680279,-5,-5,-3,-2,-1,10,23,-4
16:30:24.687275,-4,-2,-4,-2,-3,1,0,-4
16:30:24.695267,-3,-2,-2,0,-2,0,2,-5
16:30:24.702265,2,-3,-2,1,-1,-2,5,10
16:30:24.717256,-6,-1,-2,-2,-4,-6,-23,-15
16:30:24.725252,0,-1,2,-1,-1,-1,0,5
16:30:24.740243,3,2,0,-1,-2,-4,-11,5
16:30:24.755233,-2,-3,-4,1,1,-2,-5,-6
16:30:24.755233,-1,0,2,-1,0,2,1,-5
16:30:24.770224,7,0,-3,-2,1,-1,12,28
16:30:24.777219,-7,1,0,-2,-4,-3,-9,-6
16:30:24.785212,-2,-1,1,2,0,-2,-15,-8
16:30:24.800206,1,-1,0,-1,0,7,5,10
16:30:24.807199,0,1,0,-2,-5,-3,-1,-1
16:30:24.815197,-2,-3,-1,-5,-3,3,7,1
16:30:24.830184,-1,1,0,-3,1,6,9,1
16:30:24.837182,-3,0,-1,-1,-4,-7,-5,-6
16:30:24.845178,-2,-3,-4,1,2,-3,-16,1
16:30:24.860169,0,-1,-1,-1,0,-1,-5,-3
16:30:24.867164,1,-1,0,0,0,-8,-8,7
16:30:24.875160,10,1,3,4,3,4,-3,-3
16:30:24.882153,-1,2,-1,-2,-3,-1,19,8
16:30:24.905141,6,1,-1,-1,-1,-4,9,17
16:30:24.906141,-6,0,-1,0,-1,-1,-4,-6
16:30:24.920132,4,2,1,-2,-1,-2,-2,-4
16:30:24.927125,-6,-3,2,-2,1,5,-6,-3
16:30:24.935123,0,1,-2,-1,-1,0,0,-1
16:30:24.942119,-3,0,-1,-2,-4,1,37,-9
16:30:24.957107,3,1,1,-2,-6,-5,-15,0
16:30:24.965105,-4,-3,-1,-3,-4,-7,12,-11
16:30:24.987088,3,1,1,1,-1,2,4,2
16:30:24.988088,7,-3,-1,-3,-1,-5,-11,0
16:30:24.995086,-3,-1,0,2,-3,-2,6,1
16:30:25.002078,-2,0,5,3,7,7,-3,-4
16:30:25.018070,-8,-2,-4,-2,1,4,15,12
16:30:25.025068,1,0,1,0,2,-10,-25,0
16:30:25.040058,0,1,1,-1,0,3,3,-4
16:30:25.040058,-6,-3,1,-3,0,-4,0,-4
16:30:25.055046,0,0,0,-2,-2,-1,-13,1
16:30:25.062044,-1,-2,-2,-3,-1,-3,5,-2
16:30:25.085030,0,-1,-1,-1,-2,-4,-4,-1
16:30:25.086030,-7,-3,-1,-1,-2,-3,0,-11
16:30:25.100022,-5,0,-4,0,-3,-4,-9,-6
16:30:25.107017,-2,-1,-2,-1,-1,-9,-10,-10
16:30:25.115012,2,1,1,2,6,7,-2,4
16:30:25.122008,-4,-5,-2,1,1,4,-6,1
16:30:25.144993,1,-1,-1,1,3,8,17,-9
16:30:25.145990,-1,-3,-1,1,3,6,4,-3
16:30:25.159984,1,2,0,0,-2,-2,8,2
16:30:25.167979,-1,1,-2,-3,2,-4,-4,-5
16:30:25.182968,-2,3,3,-5,0,-9,-8,-2
16:30:25.182968,-6,-4,-1,3,-3,-7,-10,-7
16:30:25.197961,-4,-2,-1,-3,-1,3,-10,-3
16:30:25.212949,1,-1,-3,-1,-1,-1,12,10
16:30:25.219944,11,2,0,-1,3,-5,-14,-5
16:30:25.227941,0,1,2,-1,2,-2,-7,-6
16:30:25.241934,3,2,-1,-1,0,-1,7,3
16:30:25.242932,-4,-3,-2,1,3,5,4,-1
16:30:25.257924,-3,2,-3,-1,-3,-2,-1,-9
16:30:25.264920,2,2,0,0,1,0,-4,-3
16:30:25.279908,-5,-3,-3,-3,-3,-4,-7,-8
16:30:25.294901,-6,-4,1,1,2,2,9,3
16:30:25.302893,0,-1,-1,-2,1,6,1,15
16:30:25.302893,-3,-4,1,-2,-3,-5,-1,-11
16:30:25.317888,-3,0,-1,-2,-1,-1,-8,-5
16:30:25.324883,8,3,-3,-2,3,2,3,16
16:30:25.339874,3,-1,-2,-3,-1,-5,-1,-6
16:30:25.347869,-5,-2,-2,-1,3,-2,8,-7
16:30:25.362858,-4,0,-3,0,-2,-17,-32,-8
16:30:25.362858,9,0,-3,-12,-3,-2,0,9
16:30:25.377850,5,0,-3,-1,-5,-4,4,9
16:30:25.384846,-2,-2,-4,-2,-1,0,-16,-4
16:30:25.399836,2,-1,-1,-3,-2,2,-1,1
16:30:25.407832,-1,-1,-3,-2,-5,-5,12,13
16:30:25.422820,-1,-3,-3,-1,-2,-6,-11,-11
16:30:25.422820,0,1,1,0,0,-16,-15,-6
16:30:25.437814,-5,-4,-2,-1,-1,10,6,-2
16:30:25.444809,-6,-2,-4,-3,-6,-6,-9,-8
16:30:25.459800,1,-1,0,0,-1,2,2,-4
16:30:25.467794,-3,-1,-2,-1,-3,5,35,-2
16:30:25.489781,2,0,-2,0,-2,6,-8,-2
16:30:25.490781,-5,-4,0,-2,0,4,5,2
16:30:25.497777,2,0,0,-1,1,-1,22,4
16:30:25.504772,-8,-2,-4,-3,-2,-2,-6,-11
16:30:25.519762,-4,-2,0,0,2,4,-2,6
16:30:25.527755,-2,-4,-3,-6,-2,-4,-3,-5
16:30:25.542745,-4,-1,1,-1,0,-2,-3,-10
16:30:25.542745,2,1,1,0,0,0,14,9
16:30:25.564735,-4,-5,0,-2,1,-11,-36,-1
16:30:25.565733,-1,-4,-2,-3,0,2,3,-1
16:30:25.579723,-2,-4,-1,-2,7,16,3,-6
16:30:25.587721,-5,-3,-3,-3,-5,-5,-3,-6
16:30:25.602713,-1,0,0,0,3,-1,22,-1
16:30:25.602713,3,6,6,5,2,8,2,2
16:30:25.617702,6,0,-1,-5,-2,1,3,4
16:30:25.624695,4,-1,0,-3,-1,-5,-4,-3
16:30:25.639687,3,-1,0,-2,0,4,19,7
16:30:25.647684,-3,0,-1,1,-2,4,2,-4
16:30:25.662674,-2,0,-1,2,2,-5,-6,-5
16:30:25.662674,7,-1,-3,-1,-3,-1,14,27
16:30:25.677666,0,-1,-1,0,-3,-4,-5,-6
16:30:25.685658,3,0,-1,-1,-1,-1,-4,0
16:30:25.700652,2,1,3,2,0,-1,4,-3
16:30:25.707647,-3,-2,-1,-4,-2,-5,-2,-3
16:30:25.722635,0,-2,-1,0,0,3,13,-5
16:30:25.722635,3,-1,0,-2,-3,5,-6,5
16:30:25.737629,-6,-2,-1,-3,-2,0,-1,-11
16:30:25.744622,3,0,-4,-1,-3,1,-5,-3
16:30:25.759614,6,1,0,1,4,10,35,37
16:30:25.767607,0,-1,-1,1,1,-2,2,-3
16:30:25.782601,-1,-2,0,-2,0,-5,-14,-1
16:30:25.783597,-1,-3,-1,1,4,15,17,7
16:30:25.797592,-4,-3,0,-2,-2,-1,2,0
16:30:25.804585,-2,1,2,-1,-3,2,-3,-2
16:30:25.819575,-1,-3,-2,-2,-3,-17,-44,-1
16:30:25.827570,-3,-1,0,2,-2,5,19,13
16:30:25.842564,-1,-2,1,2,1,2,19,4
16:30:25.843560,0,2,-3,4,8,0,0,-3
16:30:25.857555,-1,-1,-1,-15,-10,-11,-14,-10
16:30:25.865548,5,2,-1,3,3,0,-6,8
16:30:25.880538,-5,-3,-1,-2,1,-2,-1,-9
16:30:25.887537,-1,-2,1,2,8,5,-3,-2
16:30:25.902527,0,-1,-1,-21,-9,-2,-5,-4
16:30:25.903525,-10,-6,-4,3,4,-1,-42,-12
16:30:25.917518,-2,-1,-2,-2,-3,5,9,0
