timestamp,emg1,emg2,emg3,emg4,emg5,emg6,emg7,emg8
18:56:46.671301,6,3,-1,0,1,1,1,0
18:56:46.686290,-2,1,-2,-2,-1,-1,-3,1
18:56:46.686290,18,6,1,0,0,0,-1,8
18:56:46.701280,-5,-3,1,-2,0,-3,13,1
18:56:46.708278,6,-1,-1,-3,-1,-3,-4,-2
18:56:46.723266,9,5,0,-1,0,-6,0,3
18:56:46.723266,-3,-4,0,0,0,1,0,0
18:56:46.753248,4,3,-1,-1,-1,-1,0,-2
18:56:46.753248,7,4,0,-1,-3,3,5,7
18:56:46.760243,2,1,0,-1,-5,1,2,-2
18:56:46.768239,-3,-5,0,1,1,-2,-1,1
18:56:46.783228,5,-1,0,2,2,4,8,7
18:56:46.783228,-1,-2,1,2,0,0,-3,0
18:56:46.805215,-1,-3,2,2,4,1,0,-1
18:56:46.806215,8,1,-2,0,-4,1,2,-2
18:56:46.820211,3,4,0,-2,-2,2,6,0
18:56:46.828202,-3,1,-3,-2,1,2,2,0
18:56:46.843192,0,0,0,1,-1,-2,-1,-2
18:56:46.843192,-5,-1,-2,0,1,-6,-9,-7
18:56:46.865179,-3,2,-2,-1,-2,-1,-1,-4
18:56:46.866182,1,-3,2,0,0,-1,1,4
18:56:46.880171,-4,2,-1,0,0,1,-9,3
18:56:46.888165,0,-1,-2,-3,0,-1,3,-5
18:56:46.903157,-1,1,-2,-1,-1,2,2,0
18:56:46.904158,-4,-5,1,-1,-2,-1,-2,1
18:56:46.926143,-4,-4,-2,-3,0,0,1,-2
18:56:46.926143,-1,-3,-1,0,-1,-1,-1,0
18:56:46.941131,-6,-1,0,-2,1,-3,-5,-8
18:56:46.948130,-2,-3,-3,-3,-4,-1,-3,-6
18:56:46.971115,-6,-3,-2,-3,-1,0,0,0
18:56:46.971115,0,-3,-1,-3,1,0,-4,-4
18:56:46.986106,0,0,-1,-1,0,-5,-2,3
18:56:46.986106,-4,-3,-1,2,-1,0,-6,-7
18:56:47.001097,0,-2,-3,-3,-3,-10,-7,-8
18:56:47.008092,-5,-3,0,0,2,3,-2,0
18:56:47.023083,1,1,0,-3,-1,-2,-1,-3
18:56:47.024079,16,7,2,2,3,1,3,3
18:56:47.046069,2,3,2,2,-1,-6,-4,3
18:56:47.047065,4,-1,-2,-2,-2,3,5,3
18:56:47.061056,1,1,0,-1,2,1,-4,-5
18:56:47.068055,-7,-2,0,-2,-3,-4,-4,-1
18:56:47.083046,1,0,1,4,2,0,1,-2
18:56:47.084042,-9,-2,1,-1,0,-3,-6,-7
18:56:47.106029,-1,0,-4,0,2,-1,1,0
18:56:47.107028,6,3,-2,-1,-4,-4,-3,-4
18:56:47.128019,-2,0,1,3,3,4,1,0
18:56:47.129017,3,2,-1,0,-2,-1,-1,-5
18:56:47.143008,1,0,-1,-2,-1,-1,1,8
18:56:47.144005,-7,-4,0,-4,-3,-6,-6,-9
18:56:47.165992,1,0,-1,-1,-5,-1,-5,-3
18:56:47.165992,-4,2,0,0,-1,5,7,-1
18:56:47.187981,10,4,0,-3,-1,3,3,0
18:56:47.188978,-3,1,1,-1,1,-4,-4,-2
18:56:47.202971,0,-5,-1,-3,-5,-4,1,3
18:56:47.203968,-7,-2,0,-1,-3,1,-1,-1
18:56:47.225955,-8,-3,-2,0,2,-2,-4,-3
18:56:47.225955,-3,0,-1,0,-2,-7,-7,0
18:56:47.247944,-1,0,3,2,3,1,-1,-1
18:56:47.248940,5,0,1,-1,-1,-3,-2,-2
18:56:47.270926,-1,-4,-5,-5,-7,-3,-3,0
18:56:47.270926,-1,-1,-2,-3,2,1,1,1
18:56:47.285917,1,-2,1,-1,-6,-3,-6,0
18:56:47.286920,-1,-1,0,2,-1,-3,0,0
18:56:47.307907,17,3,1,0,1,2,2,7
18:56:47.308902,-2,0,-4,0,2,1,-6,-2
18:56:47.322897,-9,-7,-3,-3,-3,-7,-8,-8
18:56:47.323896,-4,0,1,2,-2,-2,4,-1
18:56:47.345882,-1,3,1,4,3,2,3,-1
18:56:47.346879,0,-2,-1,-3,-1,-1,-2,0
18:56:47.367869,8,0,-3,-4,-1,-2,-2,0
18:56:47.368865,-3,0,-1,-2,0,0,3,-1
18:56:47.382860,-4,-1,1,1,0,1,-4,-10
18:56:47.383859,-6,-3,-2,0,-2,1,-1,-9
18:56:47.405843,4,-2,-2,-5,-5,-5,-4,-4
18:56:47.405843,-2,-1,-1,0,0,0,-4,-2
18:56:47.427830,-2,-2,1,-3,-5,1,0,1
18:56:47.428831,-6,-8,-4,-4,-1,4,0,2
18:56:47.443821,0,-1,-3,-5,-3,-4,-2,-2
18:56:47.450818,-3,0,-1,-1,-1,0,15,0
18:56:47.465808,-1,1,0,0,0,1,-4,-2
18:56:47.466808,4,1,2,0,-3,-5,-3,0
18:56:47.487792,-8,-3,0,-5,-2,-2,-2,-10
18:56:47.488793,0,-1,-6,-3,-4,-6,-3,-4
18:56:47.503782,-4,-3,0,1,2,-1,0,0
18:56:47.510780,-1,0,-2,-3,-1,-2,-3,-1
18:56:47.525769,-2,-1,-2,0,-1,0,0,-1
18:56:47.526781,3,2,2,0,-1,1,0,-3
18:56:47.547757,5,2,-4,-4,-3,-7,-6,-3
18:56:47.548754,0,-3,-4,0,0,-4,-2,2
18:56:47.563744,-3,-4,-3,-2,-7,-6,-1,-4
18:56:47.570743,-2,0,-3,0,0,0,0,-1
18:56:47.585734,-3,0,1,-2,-3,0,1,-4
18:56:47.585734,1,1,1,2,0,3,6,6
18:56:47.608717,-1,1,-1,-2,1,7,21,-6
18:56:47.608717,1,-1,0,-3,0,2,0,2
18:56:47.623710,-2,-1,-1,-2,-3,1,-1,-2
18:56:47.630706,-5,-3,0,-4,-1,-3,1,-4
18:56:47.645697,3,-2,-4,-3,1,-1,-2,2
18:56:47.646693,-1,2,1,-1,0,2,-2,-1
18:56:47.668679,0,2,0,1,1,-1,1,0
18:56:47.668679,0,-4,-1,-1,3,-2,-1,-1
18:56:47.683670,-4,3,1,0,-4,-1,-2,-1
18:56:47.690667,6,2,1,-2,-1,1,-1,-3
18:56:47.705660,3,3,1,-3,-4,-2,1,2
18:56:47.706656,-4,1,0,-1,-4,-8,-2,-1
18:56:47.728642,-2,0,0,0,2,1,1,1
18:56:47.728642,-7,-1,2,0,-1,-4,-2,-3
18:56:47.743634,1,1,-1,1,0,1,1,1
18:56:47.750632,-1,-5,-2,-2,0,-1,-3,0
18:56:47.765622,0,-1,1,-1,1,-1,0,-4
18:56:47.772618,-3,-1,0,-1,2,-1,-3,-6
18:56:47.788608,-2,-1,-3,-3,-3,-3,-1,-1
18:56:47.788608,2,-4,1,1,0,0,-2,-3
18:56:47.803596,0,1,-1,-2,0,-2,-2,-3
18:56:47.810591,-9,0,0,1,-2,2,-2,-4
18:56:47.825585,-6,-4,-1,0,-1,-3,-5,-8
18:56:47.826583,0,-5,-1,-4,-4,-6,-7,-7
18:56:47.855567,2,1,-5,-4,-2,-1,-5,2
18:56:47.856565,-4,0,-3,0,-1,0,1,0
18:56:47.863561,-2,-2,-3,0,-1,0,-3,-6
18:56:47.870557,-1,0,-2,-1,-1,-2,-1,-2
18:56:47.893540,-4,-3,-1,0,0,-1,0,-1
18:56:47.894542,0,-1,0,0,-4,-2,1,0
18:56:47.908530,-6,-8,-3,-3,0,-2,-2,-1
18:56:47.908530,-3,-2,0,1,-4,-1,-1,-5
18:56:47.923525,2,-1,-1,1,-2,-2,-3,6
18:56:47.930520,-2,-4,1,-4,-3,-4,0,-8
18:56:47.945511,7,4,1,-2,0,-14,-15,-12
18:56:47.946507,0,0,1,0,-3,0,0,-4
18:56:47.968495,4,1,1,1,4,5,3,0
18:56:47.968495,1,0,0,-1,-2,-2,-2,-3
18:56:47.983487,-5,1,-2,1,-1,-3,-3,-1
18:56:47.990483,2,6,1,-1,-1,-2,-4,-3
18:56:48.005474,-3,0,-3,-1,-1,-5,-4,-7
18:56:48.006470,0,-1,0,-2,-4,2,-3,-6
18:56:48.028457,9,6,4,2,1,-1,-2,2
18:56:48.028457,0,-2,1,3,-3,2,0,6
18:56:48.050445,-5,-4,0,-3,-1,-2,-1,-4
18:56:48.051445,1,-2,1,4,3,1,-4,4
18:56:48.065433,-1,-2,0,-2,1,-2,0,-1
18:56:48.066436,-7,-3,-3,0,-2,-3,0,-4
18:56:48.088419,-9,-2,1,-2,-2,0,-2,-5
18:56:48.088419,-1,0,-2,-3,-3,2,-3,0
18:56:48.110406,0,3,2,0,-3,0,-1,2
18:56:48.111407,1,-1,-2,-1,-4,-5,-7,1
18:56:48.125399,-1,-2,-3,2,0,-2,-1,7
18:56:48.126398,-2,-5,-2,-1,0,-1,-2,-2
18:56:48.148385,-8,-5,-2,-3,-2,-7,-6,-3
18:56:48.148385,-4,-2,0,-3,-2,-4,-2,-1
18:56:48.171367,1,0,-3,-2,-1,3,2,-2
18:56:48.171367,-9,-6,0,-2,-3,-11,-8,-7
18:56:48.185359,-5,-5,-3,-1,4,3,1,0
18:56:48.186361,-1,-3,-1,-4,3,1,2,1
18:56:48.208347,-6,-2,1,-1,-4,-6,-1,-6
18:56:48.208347,-7,-2,-5,-2,-1,-1,-5,-10
18:56:48.231333,-2,-2,1,0,3,4,2,4
18:56:48.231333,-5,0,0,-1,-1,-1,-4,-1
18:56:48.245322,6,4,5,2,0,5,17,17
18:56:48.246322,-1,0,-2,-1,-4,-2,1,-5
18:56:48.268312,3,1,-2,-6,-2,-1,-3,3
18:56:48.269310,-9,-4,0,0,1,6,4,-2
18:56:48.291295,4,2,0,0,-2,0,2,8
18:56:48.291295,-6,-2,2,0,-2,0,4,3
18:56:48.306285,-1,-1,2,0,1,-8,-7,-4
18:56:48.321279,2,2,0,-2,0,-2,0,-1
18:56:48.328271,-1,3,2,0,0,-2,0,0
18:56:48.328271,-12,-9,-2,0,-1,3,2,-6
18:56:48.350260,-4,2,1,3,3,-2,-1,6
18:56:48.351256,-1,-1,-2,-3,1,-1,-2,-5
18:56:48.366247,-1,-2,0,0,2,1,2,-2
18:56:48.373246,-3,-1,-3,-3,-1,-1,-1,-3
18:56:48.388233,-2,-1,-3,0,-5,-1,1,-2
18:56:48.389236,0,-4,-3,0,-1,-6,-4,-4
18:56:48.410220,0,0,-2,0,1,0,-3,7
18:56:48.426210,-3,-2,-1,-5,-4,-3,-2,-2
18:56:48.426210,6,-2,-7,-2,-3,-9,-3,3
18:56:48.433208,-9,-6,-1,3,-2,3,-2,-3
18:56:48.448199,1,-3,-1,0,-2,3,7,2
18:56:48.449195,-4,-2,-3,-1,-1,-4,-3,-2
18:56:48.471182,6,1,-4,-3,-3,0,0,4
18:56:48.471182,0,-1,1,6,22,2,-1,-1
18:56:48.486175,0,-1,1,-8,-44,-4,-3,0
18:56:48.493171,-6,-4,-3,1,7,-2,-3,-4
18:56:48.508162,-10,-4,-3,-3,2,1,-3,-2
18:56:48.509159,1,2,-1,2,2,0,-2,-3
18:56:48.531147,-4,2,2,-6,-1,-3,-3,-3
18:56:48.531147,-4,0,-2,1,-1,-2,-3,-1
18:56:48.546138,1,-2,-3,-2,-1,-3,-3,2
18:56:48.553134,-5,-4,-4,0,2,-3,-3,-5
18:56:48.568125,1,-1,0,-2,-2,-1,-2,2
18:56:48.569121,-5,-3,1,0,2,6,2,-2
18:56:48.591108,-6,-1,-3,1,1,1,0,-4
18:56:48.591108,13,2,0,0,-1,-5,-6,-1
18:56:48.606098,-1,-3,-2,1,-1,0,0,0
18:56:48.613097,-3,-2,2,2,5,2,0,0
18:56:48.628085,-5,-2,-2,-6,-53,-1,-2,-3
18:56:48.636079,-4,2,1,2,9,3,1,0
18:56:48.651070,-6,0,-3,2,5,3,-3,-1
18:56:48.651070,-3,-3,-2,-3,0,-2,4,0
18:56:48.666064,-5,-2,-5,-4,-4,-1,1,-3
18:56:48.673059,-3,-2,-4,-4,-5,-4,-1,0
18:56:48.688050,-7,-5,-1,5,-2,-1,-1,-7
18:56:48.689047,-2,2,-1,2,4,2,-3,-5
18:56:48.711033,-2,-2,0,0,0,4,5,0
18:56:48.711033,-4,-1,-4,-6,-9,-4,-1,-2
18:56:48.726027,-1,0,1,-1,-1,-4,-1,-3
18:56:48.733021,0,-6,-3,-1,-4,-7,-7,-2
18:56:48.748013,-5,-1,1,4,23,4,1,-2
18:56:48.749009,-2,-2,-3,-2,7,-3,-1,-1
18:56:48.770996,-1,-3,0,-6,2,-2,-4,0
18:56:48.770996,0,1,2,5,4,4,1,3
18:56:48.785990,-3,0,1,-5,-1,-2,-2,-2
18:56:48.792983,-3,-3,-2,-3,-7,0,-3,-4
18:56:48.807973,2,0,-3,0,-3,0,1,0
18:56:48.808973,0,-6,-8,-4,-8,-5,-3,-4
18:56:48.838954,5,5,7,2,4,4,3,2
18:56:48.838954,1,1,-4,-10,-5,-3,-1,-1
18:56:48.845953,5,5,15,34,0,7,2,2
18:56:48.852946,0,-3,-12,-24,-48,-5,3,-1
18:56:48.867938,-2,-2,-2,-3,38,5,-4,-3
18:56:48.868938,2,8,9,11,-1,-9,2,-2
18:56:48.890921,-4,-7,6,7,94,25,-2,-5
18:56:48.890921,15,26,42,-23,-9,17,10,10
18:56:48.905915,9,6,-7,81,9,-14,7,11
18:56:48.912908,4,6,-13,-39,104,46,5,1
18:56:48.928901,-12,-29,15,28,58,-90,-13,-8
18:56:48.935897,-22,-36,-75,-12,48,-116,-18,-11
18:56:48.957881,-17,-9,-20,-90,119,50,-9,-7
18:56:48.958882,6,-28,-73,-111,127,127,35,5
18:56:48.965878,-9,38,68,-75,127,127,-17,-13
18:56:48.972871,-6,-100,-128,-128,-128,-128,-20,10
18:56:48.987863,-37,4,3,-128,-128,80,-12,-17
18:56:48.988863,-29,-41,-91,-128,53,-76,-25,-25
18:56:49.010847,-9,14,37,-22,-128,16,0,-20
18:56:49.011847,10,-10,-67,-128,-128,62,6,3
18:56:49.032836,-37,-52,-8,5,127,26,-15,-16
18:56:49.033835,32,59,44,127,-128,52,25,6
18:56:49.048825,-57,-48,-25,-128,52,-9,-44,-27
18:56:49.055822,33,31,-3,-90,56,-47,19,23
18:56:49.070813,3,-12,-33,112,-128,29,12,1
18:56:49.071809,-31,-35,-57,-128,-128,-25,-24,-18
18:56:49.092797,11,69,80,35,127,-112,10,9
18:56:49.093799,-16,24,70,-24,-128,-35,-10,-11
18:56:49.107786,-3,-7,-128,-128,32,4,9,-7
18:56:49.115785,13,69,73,-128,-128,5,-19,-2
18:56:49.145767,-95,-128,-128,-128,-128,-128,-58,-46
18:56:49.153758,51,9,28,127,127,127,55,25
18:56:49.153758,27,16,-53,-128,-55,-128,3,28
18:56:49.154757,-28,5,-9,-128,-128,-128,-32,-18
18:56:49.168749,42,75,77,-21,-128,-128,-14,4
18:56:49.175748,-17,-36,-128,-128,-128,-128,-38,-5
18:56:49.190739,-46,-61,-85,74,-128,-128,-77,-27
18:56:49.191737,22,127,127,-128,-128,-128,-13,-6
18:56:49.213722,-2,41,87,-128,-128,-128,-20,-3
18:56:49.213722,-68,-111,-110,-128,-128,127,12,-23
18:56:49.228712,46,118,78,-16,-128,-128,-14,16
18:56:49.235710,-41,-102,45,127,127,44,-16,-17
18:56:49.250701,47,127,127,127,127,127,22,8
18:56:49.251698,-29,-72,-20,127,127,127,26,-3
18:56:49.273687,64,127,127,-128,-128,-128,-2,19
18:56:49.274684,-38,-40,-10,-128,-128,-128,-12,-9
18:56:49.288675,21,127,127,127,-22,127,-13,-15
18:56:49.295674,3,17,-24,-32,127,127,7,10
18:56:49.325655,24,77,89,-126,-128,-112,1,12
18:56:49.326652,-11,-71,-89,127,47,121,5,-1
18:56:49.332650,59,127,127,-128,127,-8,30,17
18:56:49.333648,-56,-103,-49,-39,-102,-46,-18,-16
18:56:49.348637,-24,-94,-98,-128,-128,-128,-1,-8
18:56:49.355636,-68,-128,-128,127,124,-23,-9,-30
18:56:49.370627,25,114,127,-14,127,106,12,4
18:56:49.371623,13,11,22,-82,15,-128,-11,3
18:56:49.393610,-26,-64,-58,-128,127,95,-4,-18
18:56:49.393610,4,16,35,21,-128,-115,-3,10
18:56:49.408603,-14,-75,-69,127,-128,-128,0,-6
18:56:49.415599,2,30,35,-128,-128,-126,7,2
18:56:49.430590,-12,-28,-46,-24,-128,-18,-16,-9
18:56:49.431589,-35,-95,-35,127,127,127,18,-18
18:56:49.453575,19,18,-1,-61,-128,-55,5,15
18:56:49.454575,-10,-6,32,127,-49,18,-6,-13
18:56:49.468566,11,27,44,68,-75,-128,-8,6
18:56:49.475562,30,35,21,127,-90,-30,4,16
18:56:49.490553,-61,-115,-76,-67,79,127,-5,-23
18:56:49.491552,23,53,-6,-128,-128,-128,-10,8
18:56:49.513536,-8,-1,-9,-128,-128,-128,-19,-1
18:56:49.513536,-16,-4,12,-101,54,86,3,-17
18:56:49.528526,27,85,93,-128,-65,127,9,12
18:56:49.535525,1,-33,-20,-36,-25,4,-7,2
18:56:49.551514,-23,-78,-65,57,127,-55,1,-9
18:56:49.551514,-4,-26,-65,51,-128,-128,-15,-6
18:56:49.573498,4,15,28,-49,8,-128,-1,0
18:56:49.573498,-1,8,-9,-128,-128,-117,-17,-6
18:56:49.588492,-22,-75,-77,0,-73,125,4,-6
18:56:49.595485,10,23,63,127,127,127,4,2
18:56:49.610478,6,-4,-22,-128,-128,-70,-7,7
18:56:49.611475,-31,-62,-3,127,44,-16,1,-10
18:56:49.633464,20,34,48,127,127,39,12,9
18:56:49.633464,-9,-20,-15,127,127,127,5,-5
18:56:49.663443,10,12,-13,-128,-40,5,4,6
18:56:49.664442,17,3,-10,127,127,91,9,6
18:56:49.670438,7,0,14,-11,-35,5,12,10
18:56:49.671438,20,76,41,-128,-128,-100,2,7
18:56:49.693426,-24,-40,-31,-55,127,127,14,-11
18:56:49.693426,3,7,3,-75,-128,-111,-4,1
18:56:49.715411,-15,-36,-48,-42,5,-1,0,-7
18:56:49.716410,3,7,23,43,-30,-31,-4,-2
18:56:49.730403,17,26,23,23,40,-1,8,10
18:56:49.731403,-2,-1,0,-19,28,2,-1,-3
18:56:49.753387,2,7,45,127,114,27,10,3
18:56:49.753387,0,0,-6,-29,-21,-9,-2,-2
18:56:49.775374,0,0,-4,-23,-20,1,-1,2
18:56:49.776372,-4,-5,0,12,2,0,-1,-2
18:56:49.798362,0,3,4,3,-6,-6,-3,1
18:56:49.799359,-5,-2,3,7,3,3,-4,-1
18:56:49.813352,1,-5,-12,-86,-128,-31,1,1
18:56:49.814349,-5,-4,-2,-1,-30,-1,-3,0
18:56:49.835335,5,2,-3,-22,-24,-3,-7,5
18:56:49.836335,-15,-3,2,0,5,1,39,-17
18:56:49.850329,-3,-6,-2,7,13,-23,27,15
18:56:49.851329,-75,-33,-13,-15,-7,1,-101,-42
18:56:49.873315,51,10,5,-3,13,4,127,8
18:56:49.874313,127,-30,6,-8,0,26,-128,22
18:56:49.895299,-87,-17,-21,-24,-65,-102,127,-128
18:56:49.896301,36,127,53,20,10,9,-128,-26
18:56:49.911289,-114,-3,-22,-12,-2,-13,-128,58
18:56:49.911289,-6,55,26,24,18,-12,127,-50
18:56:49.933278,127,-104,26,18,53,23,127,25
18:56:49.934274,-58,21,5,-5,-51,-54,-2,-47
18:56:49.955262,-34,-15,-4,-6,52,26,-38,3
18:56:49.956261,54,87,78,18,-57,100,-10,38
18:56:49.970255,-12,-29,-2,127,127,127,-12,-3
18:56:49.971252,115,49,-34,-128,-128,-38,-11,36
18:56:49.993241,-30,49,48,-32,-28,-54,-9,-17
18:56:49.994238,60,-32,1,71,60,44,127,-88
18:56:50.016223,39,93,-20,-64,-35,-68,-20,-42
18:56:50.016223,-81,11,44,75,-113,-68,-8,-73
18:56:50.030215,-34,-23,15,96,127,32,4,-2
18:56:50.031216,59,42,2,-18,122,18,-19,54
18:56:50.061198,-128,-59,-8,20,127,-16,-37,-32
18:56:50.068191,124,82,17,29,8,-8,127,127
18:56:50.075187,-45,-18,-4,38,48,34,-128,127
18:56:50.076187,-32,-13,-17,-89,-21,12,20,-98
18:56:50.091177,-44,-23,3,127,-46,-21,60,-56
18:56:50.091177,8,10,-6,5,113,27,-128,53
18:56:50.113166,-11,-1,-5,-25,32,-11,59,59
18:56:50.114166,-1,-28,-21,16,-4,3,111,53
18:56:50.136150,127,86,7,22,99,59,-20,127
18:56:50.136150,7,-1,2,-73,-128,13,40,3
18:56:50.151141,-41,-18,1,91,86,26,89,-28
18:56:50.151141,13,13,-15,-128,-43,9,105,74
18:56:50.173129,-11,-14,-11,-5,-32,1,-128,-12
18:56:50.174125,-11,-14,-5,21,50,-6,11,10
18:56:50.196114,-4,9,16,-22,73,8,0,-7
18:56:50.196114,-19,-9,-9,-36,-128,-34,-8,-54
18:56:50.211102,-6,-9,2,5,57,-46,2,19
18:56:50.211102,13,14,8,69,0,16,11,6
18:56:50.233092,22,9,15,74,2,39,-80,33
18:56:50.234091,-7,-7,0,-50,-69,0,9,-24
18:56:50.256076,-23,-15,-41,-15,24,-22,1,-11
18:56:50.256076,2,-11,-9,-43,-61,-24,-8,-6
18:56:50.271066,11,4,-16,-50,124,15,6,14
18:56:50.271066,-4,-8,7,42,15,-21,-1,9
18:56:50.293055,41,24,20,47,68,26,69,20
18:56:50.294052,-5,1,7,-7,-33,-7,-11,-10
18:56:50.316037,-2,3,7,11,70,12,22,20
18:56:50.316037,-2,-2,-1,-75,-12,-3,-3,-4
18:56:50.331028,0,3,15,87,-20,-16,-5,-6
18:56:50.331028,-16,-6,-1,40,20,8,6,11
18:56:50.353018,14,15,9,-6,44,11,5,36
18:56:50.354016,-7,0,-5,3,44,2,-4,-12
18:56:50.376000,-10,-10,-4,-7,-13,7,2,-2
18:56:50.376000,-12,-4,-4,-4,-28,-11,-9,-18
18:56:50.390995,-2,-2,-6,14,14,-3,1,-2
18:56:50.390995,-11,0,13,-8,-24,8,6,0
18:56:50.412978,2,-4,-3,-8,-79,-29,-1,1
18:56:50.413977,-4,-3,-5,-67,-82,-31,0,0
18:56:50.435964,-29,-26,-4,23,17,6,-22,-24
18:56:50.435964,16,-4,-5,-6,-17,-7,16,-4
18:56:50.450954,6,1,1,8,-12,-5,-4,22
18:56:50.450954,-5,-7,-8,-14,38,-3,1,-14
18:56:50.472943,-2,2,9,15,-26,-5,0,-3
18:56:50.473940,3,4,6,-27,-32,-1,1,2
18:56:50.495926,2,-4,0,-4,34,-2,-2,2
18:56:50.496926,2,0,3,14,3,0,1,3
18:56:50.510917,-9,-9,-6,-6,-33,-3,18,13
18:56:50.511920,19,13,7,17,32,12,-11,2
18:56:50.540901,-12,-6,-3,2,15,-4,-16,-26
18:56:50.540901,14,3,-1,-34,-1,11,4,29
18:56:50.555892,-3,-5,-3,47,110,2,1,-9
18:56:50.556889,1,-1,3,3,34,-4,-5,-6
18:56:50.570879,-9,-6,-2,-5,-3,-7,-4,-4
18:56:50.570879,-1,1,-1,-7,-8,2,-6,1
18:56:50.592866,2,2,-5,0,2,3,7,-2
18:56:50.593868,15,2,-2,-2,0,9,13,12
18:56:50.615854,-5,-4,-2,9,17,3,0,-2
18:56:50.616851,-2,-2,-1,-1,20,-1,3,8
18:56:50.630842,-1,-4,-3,-8,28,3,-5,-5
18:56:50.631842,0,1,-1,-16,36,2,-2,2
18:56:50.652828,0,-2,-1,-14,-15,-3,-6,-9
18:56:50.653831,3,0,-1,5,27,5,-19,3
18:56:50.675818,0,-1,0,-3,-2,3,-21,21
18:56:50.676814,-5,-2,-2,0,-7,-9,0,-6
18:56:50.690808,-3,1,0,0,-3,-6,-2,-5
18:56:50.698800,1,-4,-4,-15,-35,1,1,-1
18:56:50.713791,0,2,0,23,-5,-6,1,-1
18:56:50.713791,-4,-2,-1,-1,-18,-7,-5,-3
18:56:50.735782,-3,-3,-5,-2,4,-9,-4,0
18:56:50.736781,-4,-4,-3,-32,-105,0,1,0
18:56:50.757764,-6,-2,-2,5,5,-8,-1,-1
18:56:50.765762,0,1,-1,-8,-19,-1,-1,2
18:56:50.772754,-6,-1,0,1,9,-1,2,3
18:56:50.773756,16,2,2,1,4,4,0,5
18:56:50.795743,-10,-4,0,-2,0,-3,-20,-13
18:56:50.796739,-9,-4,-1,26,-2,0,4,-3
18:56:50.818729,-2,-1,2,-2,-24,7,3,-2
18:56:50.818729,-4,-6,-6,-1,-47,-5,-4,-4
18:56:50.833717,-1,1,-1,-2,5,2,1,-1
18:56:50.833717,1,2,-5,-2,-7,0,-1,4
18:56:50.855706,-4,-4,-1,-9,-19,-5,-8,-9
18:56:50.856702,8,2,1,-1,2,-1,4,11
18:56:50.878690,-1,2,3,4,0,-8,-3,-13
18:56:50.878690,0,-3,-3,9,-17,-9,-20,1
18:56:50.892680,-2,1,0,3,11,8,6,3
18:56:50.893682,0,2,1,6,30,3,1,1
18:56:50.915668,-2,-1,0,-4,-8,-8,-1,-1
18:56:50.916665,-3,0,-3,-6,-5,1,-4,-6
18:56:50.938653,0,2,-1,-2,-1,-1,-4,-1
18:56:50.938653,1,0,-3,-1,-5,0,1,-1
18:56:50.953643,4,-3,-3,0,1,0,-16,0
18:56:50.953643,1,4,0,2,0,-1,6,3
18:56:50.975632,-9,-5,-1,-2,0,3,9,-6
18:56:50.976631,0,-3,-1,2,3,1,-3,2
18:56:50.998615,-1,-3,0,-4,-3,5,5,-4
18:56:50.998615,-5,-2,1,10,3,0,5,2
18:56:51.013606,3,0,2,6,-24,-11,4,2
18:56:51.013606,-2,-3,-4,-4,4,2,-3,-4
18:56:51.035594,0,-3,-3,-5,-8,0,-6,-7
18:56:51.036592,-4,2,0,-2,-3,-1,-2,-11
18:56:51.058577,8,3,3,3,3,6,14,17
18:56:51.058577,-6,-6,0,-2,-3,-5,-5,-7
18:56:51.073569,-6,0,-1,4,-3,-5,-21,-9
18:56:51.073569,-1,0,-2,-5,-8,-3,5,2
18:56:51.095558,-9,-3,1,6,7,4,5,-3
18:56:51.096553,-5,-3,-1,-1,-4,0,0,2
18:56:51.118540,1,1,-3,-4,-6,2,4,14
18:56:51.118540,-1,1,1,-1,8,1,3,-2
18:56:51.133531,-5,0,0,-11,-24,-4,-3,-5
18:56:51.133531,-3,1,-4,-4,2,-6,11,8
18:56:51.163512,-1,-3,0,0,-1,2,-10,-12
18:56:51.163512,1,-2,-1,2,-4,-7,3,2
18:56:51.178503,-2,-1,-2,-1,-4,-4,-23,2
18:56:51.178503,-1,5,1,-1,0,-2,2,-5
18:56:51.193493,0,-3,-1,-4,0,6,4,4
18:56:51.193493,-1,-1,1,2,-2,-4,-6,-3
18:56:51.215482,-2,-2,-2,-4,0,-3,-1,-1
18:56:51.216479,-3,-3,-4,-1,-1,-2,-3,-6
18:56:51.238466,0,1,-2,-3,-3,0,5,11
18:56:51.238466,3,4,1,3,1,-1,5,2
18:56:51.253456,-11,-2,-3,-1,0,0,-1,-3
18:56:51.254457,-2,3,2,1,1,2,-10,3
18:56:51.275442,-9,-7,-2,-5,-3,-3,-2,-2
18:56:51.276445,-4,-2,-3,-2,-1,-1,0,-4
18:56:51.298429,-2,0,1,5,7,-1,-2,-3
18:56:51.298429,-6,2,3,-1,-3,-2,-10,-12
18:56:51.313423,2,3,0,2,0,-4,-13,6
18:56:51.314421,-5,-2,-1,-3,-3,1,17,-3
18:56:51.335408,-3,0,-3,-1,3,0,-6,-7
18:56:51.336406,-4,2,-1,-4,-1,-2,-4,-5
18:56:51.358391,-7,-1,-2,0,4,10,-21,6
18:56:51.358391,-4,-6,-4,-3,-3,-6,-5,-9
18:56:51.373385,0,-3,-7,-5,-1,-2,-1,-6
18:56:51.373385,6,0,2,0,-1,-2,-1,3
18:56:51.395370,-1,0,0,0,-2,0,-2,0
18:56:51.396370,-6,-1,-2,-1,-1,-1,-5,-5
18:56:51.418357,-1,-1,-3,-2,-1,5,16,4
18:56:51.418357,-2,-2,-3,1,0,4,6,-5
18:56:51.433348,-2,-2,-1,1,3,1,-5,-1
18:56:51.433348,-9,-4,1,2,-2,3,-1,0
18:56:51.455333,-3,-1,-4,0,-1,3,-9,-5
18:56:51.456333,-3,-1,-1,-4,-2,-1,5,-1
18:56:51.478319,-4,-6,-3,1,3,0,5,-13
18:56:51.478319,4,2,1,-3,-4,1,6,4
18:56:51.493310,1,1,3,-3,-3,0,1,1
18:56:51.494308,-5,1,-2,-2,-3,0,2,3
18:56:51.516296,0,1,0,3,1,0,10,-2
18:56:51.516296,-2,-2,-3,-2,-3,-2,-11,0
18:56:51.538283,0,-1,1,1,-2,-2,12,-1
18:56:51.538283,1,1,4,2,0,-1,-6,-4
18:56:51.553273,-5,-3,-4,-4,-5,-5,-2,-3
18:56:51.554269,2,1,-4,-4,-3,-1,-2,-3
18:56:51.576257,2,-4,0,0,-5,-4,-1,-1
18:56:51.576257,3,4,0,0,0,1,0,3
18:56:51.598246,-6,-3,-2,-1,-4,0,-5,-3
18:56:51.599241,-3,-2,-3,-1,-4,-2,12,7
18:56:51.613236,5,2,1,-1,-1,-2,-1,5
18:56:51.620231,-5,-2,0,-3,-3,-1,-15,-12
18:56:51.636219,-7,-3,1,-3,1,3,-1,8
18:56:51.636219,-4,-5,-1,4,1,1,2,-4
18:56:51.658205,2,3,0,2,1,-3,-1,-1
18:56:51.659204,-2,2,1,-1,2,3,3,1
18:56:51.681193,-3,-1,-3,-1,0,-2,-1,0
18:56:51.681193,-1,-1,0,1,-1,-4,0,-2
18:56:51.696182,-2,-1,1,0,0,-2,-6,6
18:56:51.696182,-1,-1,-2,-1,-1,-1,0,-6
18:56:51.718171,-10,-4,-2,1,-2,-3,13,-7
18:56:51.719170,13,5,2,-1,1,1,8,29
18:56:51.733162,-4,0,-3,-1,0,3,1,-2
18:56:51.741157,-4,-4,-2,3,-4,-1,-3,-9
18:56:51.756147,0,-2,-4,-1,0,0,-11,0
18:56:51.756147,-3,-5,-1,0,0,-2,3,1
18:56:51.778134,4,2,2,-1,0,-5,4,-4
18:56:51.779134,6,3,3,1,1,5,3,1
18:56:51.793124,-3,-3,-1,0,1,0,0,-1
18:56:51.801117,-7,-1,0,-2,-1,-3,0,-5
18:56:51.816109,3,0,-1,-1,0,-7,-14,1
18:56:51.816109,-7,-3,-1,-2,-1,1,1,-5
18:56:51.838097,-4,-1,-1,1,0,-4,-4,-2
18:56:51.839095,-1,-2,-3,-2,-3,-6,0,-7
18:56:51.861081,3,0,0,1,3,9,14,8
18:56:51.861081,-4,-1,-1,0,-3,-1,-3,-9
18:56:51.876072,0,-3,0,0,-3,-1,-12,-8
18:56:51.876072,2,0,-1,0,-1,2,-12,3
18:56:51.898060,-5,3,0,0,0,-4,0,-6
18:56:51.899058,-6,-1,-4,-1,-1,0,1,-6
18:56:51.921043,-2,-5,-1,-1,-4,-3,-13,-1
18:56:51.921043,7,8,2,4,2,1,5,3
18:56:51.936034,-1,-3,-1,-3,-3,-8,-2,-1
18:56:51.937034,2,-1,-1,-4,0,1,1,7
18:56:51.958022,-1,0,-2,-1,-6,-6,9,0
18:56:51.959020,-1,2,1,-1,2,2,1,-3
18:56:51.981008,9,2,-2,-3,0,-1,3,11
18:56:51.982011,-14,0,-2,0,-1,-2,2,1
18:56:51.995995,-6,-1,-2,-2,0,-2,0,-7
18:56:51.995995,-3,2,0,0,-1,-3,10,-4
18:56:52.017985,0,1,-1,-4,-1,2,1,2
18:56:52.018984,0,5,3,-2,1,2,3,2
18:56:52.040968,0,2,2,-2,1,4,5,3
18:56:52.040968,-4,-1,-3,-2,0,-4,12,-4
18:56:52.055958,-2,2,0,0,1,1,-25,-7
18:56:52.055958,7,2,2,0,2,-2,13,26
18:56:52.077945,3,0,2,0,0,1,1,0
18:56:52.078944,-2,-2,-1,-2,0,-5,-2,-2
18:56:52.100930,-11,-5,-3,0,1,3,-5,-4
18:56:52.100930,-3,-1,-1,1,-2,-3,0,-2
18:56:52.115924,-1,0,-2,0,-1,0,-15,-6
18:56:52.116924,-2,0,1,0,-4,-1,11,0
18:56:52.137911,-4,0,-1,1,-2,-5,-18,-6
18:56:52.138907,-1,-1,-3,-2,0,-4,2,-4
18:56:52.160896,-3,-2,3,-4,-1,0,0,-3
18:56:52.161893,-3,-3,0,0,-2,-2,1,-2
18:56:52.175887,3,0,-1,2,2,-1,-3,-1
18:56:52.182880,1,0,-2,-4,0,0,-2,-2
18:56:52.197871,-5,-3,0,-5,-1,-1,-1,0
18:56:52.198870,11,2,-3,-1,-5,-5,-8,0
18:56:52.220856,-8,-1,-1,-3,-2,0,2,0
18:56:52.220856,-4,-4,0,0,-2,-2,-3,-5
18:56:52.235850,-1,-1,-1,-1,-3,-5,-28,-5
18:56:52.242843,-6,-1,0,1,-4,0,-13,7
18:56:52.265832,-1,0,-3,-4,1,0,0,1
18:56:52.266827,-3,-2,-1,-1,-2,-3,-1,-2
18:56:52.280822,8,-1,1,-7,-2,-4,-2,1
18:56:52.281819,-7,-4,-1,-1,-4,-2,2,5
18:56:52.295813,-2,0,2,-1,-2,0,-1,-6
18:56:52.302806,-3,-1,-2,-3,-3,-2,-2,-4
18:56:52.325794,1,-2,2,-1,-1,1,21,5
18:56:52.326791,-1,-1,-3,-3,0,1,0,0
18:56:52.340785,-3,-2,-1,0,3,-3,-1,0
18:56:52.341783,4,-2,2,2,0,-3,-20,2
18:56:52.355776,5,-1,2,-1,3,4,6,3
18:56:52.363769,2,-1,-1,-2,-4,0,9,10
18:56:52.377760,1,-3,-4,1,1,-4,1,-2
18:56:52.378759,-5,-8,-4,-1,-4,-3,-4,-4
18:56:52.400747,-5,1,-4,0,1,-1,-9,-1
18:56:52.401745,3,3,0,-1,0,-6,2,2
18:56:52.415738,-2,-1,1,-1,-2,3,-11,4
18:56:52.422733,1,0,0,-2,-1,0,5,-2
18:56:52.437722,-5,-4,-4,-2,-4,-1,-1,-8
18:56:52.438721,1,4,2,2,3,3,6,7
18:56:52.460710,3,-1,-1,1,-1,3,1,-8
18:56:52.461707,-4,1,1,1,2,0,6,4
18:56:52.475701,1,1,-2,1,-3,-3,0,-3
18:56:52.483696,-4,-5,-3,-2,-2,-2,-12,-6
18:56:52.498685,-4,-4,-1,-2,-1,-2,1,-1
18:56:52.498685,-13,-7,-1,-3,-4,-3,13,-5
18:56:52.520673,1,0,-1,3,0,1,-3,-4
18:56:52.521673,-5,-4,-3,-1,-3,-4,-1,-2
18:56:52.535664,1,0,-2,-3,-1,-2,1,-2
18:56:52.542661,-1,-1,0,1,1,-1,-5,-7
18:56:52.557648,0,2,-4,-3,1,4,-2,-3
18:56:52.558650,3,1,-1,-4,-3,-1,4,6
18:56:52.580636,7,2,-2,0,-1,1,15,-3
18:56:52.581632,-3,2,3,3,4,6,3,-5
18:56:52.595627,-1,-5,0,-2,-4,-3,17,3
18:56:52.603622,-5,0,-3,-2,2,-2,7,-8
18:56:52.618614,-6,-3,0,-1,-4,-1,-3,-3
18:56:52.618614,-2,-1,-1,-1,-3,1,4,0
18:56:52.640599,-9,-3,-2,-3,-3,-6,1,-6
18:56:52.641596,6,0,-2,-3,-6,-2,-5,-3
18:56:52.655590,-2,1,1,-1,0,-1,-4,-4
18:56:52.663586,4,-2,-3,-3,-1,1,-1,-7
18:56:52.678572,4,1,-1,-1,-2,-1,1,1
18:56:52.678572,-2,-2,3,-2,-2,-2,19,-2
18:56:52.700560,-1,-3,-3,-3,-1,2,-16,-9
18:56:52.701558,1,0,1,1,1,-1,14,11
18:56:52.715552,3,0,1,-1,-1,-2,2,-1
18:56:52.723548,6,0,0,0,1,1,6,2
18:56:52.738536,-6,-3,0,0,-1,-3,-5,-3
18:56:52.738536,1,-1,-1,-3,-5,0,-12,7
18:56:52.760524,1,-2,0,-2,-2,0,1,-2
18:56:52.761522,-1,-1,-2,1,-1,-2,4,7
18:56:52.775515,0,-1,-1,1,1,-1,-2,-2
18:56:52.783510,-3,0,0,-2,-3,-3,1,6
18:56:52.798498,-4,-1,0,1,1,2,-11,-3
18:56:52.798498,-8,-5,0,-3,-1,-1,8,-13
18:56:52.820485,8,8,2,1,0,-1,8,4
18:56:52.821484,3,-3,0,-1,-4,-1,-1,-6
18:56:52.843470,-3,-3,-2,-3,1,3,2,-2
18:56:52.844472,1,-2,-1,-1,-3,-2,-1,0
18:56:52.858463,2,-3,2,1,2,-1,2,1
18:56:52.858463,-7,-2,0,-3,-4,-2,-5,-5
18:56:52.880447,-2,1,-1,0,0,-1,0,0
18:56:52.881450,-6,-5,-2,-3,-3,-3,-16,-13
18:56:52.903432,7,2,0,2,1,3,-12,0
18:56:52.904436,5,4,-3,-1,-3,-1,7,-7
18:56:52.918423,-4,-2,-1,2,0,-5,4,-2
18:56:52.918423,-10,-10,-4,-4,-4,-5,-3,-1
18:56:52.940410,-7,-3,-2,-3,-1,-1,-4,-7
18:56:52.941412,-1,-3,-1,-1,-1,-7,2,18
18:56:52.963396,1,3,0,2,1,5,6,4
18:56:52.964403,-5,-3,0,-1,0,1,-4,-6
18:56:52.978387,11,1,-6,-3,0,0,-20,12
18:56:52.979389,-5,-2,-1,-1,-3,3,7,-2
18:56:53.000375,7,4,-2,1,-1,1,9,7
18:56:53.001372,1,4,3,2,3,-1,2,3
18:56:53.023362,-3,-4,-2,-3,0,3,-3,-4
18:56:53.031356,5,1,-1,-3,-1,2,3,3
18:56:53.038352,-4,-2,-3,-4,-3,0,1,0
18:56:53.045344,-1,-1,1,0,-4,1,2,0
18:56:53.060336,1,0,0,-3,1,1,-4,0
18:56:53.068334,-3,-1,-1,1,-3,-1,40,-3
18:56:53.083324,1,1,2,3,2,1,-13,0
18:56:53.083324,2,-4,-1,0,2,-2,6,7
18:56:53.098315,-6,-1,-1,0,-1,-3,5,-4
18:56:53.099313,-2,-1,-2,-1,0,-1,-6,-2
18:56:53.120301,-2,-3,-1,-1,-4,-5,-16,1
18:56:53.121298,5,1,0,-1,1,2,2,5
18:56:53.143287,1,-2,0,-5,-1,-2,-1,0
18:56:53.143287,-3,2,0,-2,0,-3,-1,-2
18:56:53.158277,0,-4,0,-1,0,-1,-2,-1
18:56:53.166273,-1,0,0,-1,-4,-3,-2,-1
18:56:53.180261,-3,-3,-2,-3,-2,-2,-27,-8
18:56:53.181260,-6,-1,-1,1,4,2,1,-4
18:56:53.203247,-1,-1,0,-3,-2,-2,2,1
18:56:53.204247,0,1,0,1,2,2,3,-3
18:56:53.218241,-2,2,-1,-1,-1,5,1,-1
18:56:53.226235,-4,0,-1,-1,-1,-1,12,-2
18:56:53.241224,1,0,-2,2,0,3,2,-5
18:56:53.241224,1,-1,1,-1,-1,-4,4,2
18:56:53.263212,0,-1,-2,-2,0,-4,2,16
18:56:53.264209,3,-2,-4,0,1,-2,-18,3
18:56:53.278203,5,0,-1,-1,0,-2,-7,-1
18:56:53.286195,-3,-6,-2,-1,-2,-1,2,0
18:56:53.301189,-3,-3,0,-2,-2,0,-1,-13
18:56:53.301189,2,-2,1,-1,1,3,2,-1
18:56:53.323176,2,2,1,-2,-1,3,5,4
18:56:53.324172,-1,-2,-2,-1,-2,-2,8,-8
18:56:53.338166,12,4,1,-1,1,-2,0,3
18:56:53.346162,6,4,2,3,3,1,8,13
18:56:53.368148,-7,-2,3,0,-3,2,-3,-11
18:56:53.369144,-3,-3,0,0,-1,4,13,-5
18:56:53.391130,-3,-4,0,-2,-3,-1,-9,-7
18:56:53.391130,-7,1,-2,-3,0,0,1,-3
18:56:53.398129,-13,-7,1,0,1,0,-4,1
18:56:53.406124,-3,-5,-4,-3,-6,-1,-11,-5
18:56:53.420112,-4,-1,0,0,-1,-3,-14,-6
18:56:53.421112,-9,-9,-5,1,-1,-1,0,-2
18:56:53.443101,-8,-5,-6,-4,-6,-5,-13,-9
18:56:53.444101,-3,-5,-2,-2,-5,4,-8,-2
18:56:53.458090,3,-4,-3,1,0,3,1,-2
18:56:53.473083,-2,-3,1,-2,-1,1,-3,0
18:56:53.481074,-1,1,-3,-3,-1,-2,1,2
18:56:53.481074,-5,-4,0,2,-1,1,-6,-8
18:56:53.503064,2,0,-1,1,1,3,6,2
18:56:53.504063,1,-1,1,-3,-1,-1,3,13
18:56:53.518055,-4,-5,-1,-2,-4,0,12,-8
18:56:53.526048,2,4,-1,-2,-1,0,10,-4
18:56:53.541038,-7,-6,-1,0,0,-2,-5,2
18:56:53.541038,-1,0,0,-2,-1,0,-1,-2
18:56:53.563026,-2,-3,-1,-4,-1,-1,3,0
18:56:53.564026,-2,0,1,-1,-5,1,2,-4
18:56:53.578014,3,2,0,3,0,1,3,0
18:56:53.586009,-2,-3,-2,-4,-2,-1,-1,-7
18:56:53.601000,1,-6,-2,-2,0,2,0,5
18:56:53.601000,4,3,1,4,5,2,2,6
18:56:53.622990,-4,-3,-1,-7,-6,-4,-5,-3
18:56:53.623986,-9,-7,-2,-1,1,-1,-1,-2
18:56:53.637980,-4,-2,-1,1,-4,-4,-13,-1
18:56:53.645976,-7,-4,-1,-1,2,0,-1,-6
18:56:53.660964,-7,1,-1,-3,1,-2,2,-4
18:56:53.660964,6,1,0,0,2,-4,8,11
18:56:53.682952,-4,-1,-3,0,-3,-1,-8,-7
18:56:53.683949,1,0,1,0,-1,6,9,6
18:56:53.698943,0,1,1,0,-2,-2,-2,3
18:56:53.705938,0,0,3,1,0,3,3,0
18:56:53.720926,0,-2,0,-2,0,-2,-5,-3
18:56:53.720926,-6,5,1,0,1,0,-3,-7
18:56:53.743912,-3,-4,1,0,0,0,13,1
18:56:53.743912,-6,0,-2,-3,-1,4,-4,-3
18:56:53.765901,4,2,-3,0,-1,-5,-18,-2
18:56:53.765901,-3,-3,1,2,0,1,-8,-4
18:56:53.787887,-3,-5,-3,0,-4,-1,3,0
18:56:53.788884,-1,-5,-1,-1,-1,2,1,2
18:56:53.802878,0,-2,1,-1,0,-1,5,10
18:56:53.803877,18,3,0,-2,-3,-4,-2,8
18:56:53.825864,-4,-1,1,-3,-1,0,-5,-2
18:56:53.826861,0,-3,-1,0,0,-2,7,3
18:56:53.840855,-3,-1,-2,1,-1,3,-12,-6
18:56:53.841851,-9,-1,-3,-4,-5,-5,-2,-5
18:56:53.862839,4,3,-2,-3,-3,1,-8,8
18:56:53.863837,-2,0,-3,-2,-3,-1,3,-3
18:56:53.885827,5,2,1,3,5,3,8,13
18:56:53.885827,-13,-6,-4,-4,-4,-5,-12,-13
18:56:53.900817,0,-2,-2,0,-1,0,4,-3
18:56:53.900817,-4,-1,1,0,1,3,1,-1
18:56:53.922801,-2,-5,2,1,0,-1,-1,0
18:56:53.923803,-2,-1,-2,0,-3,-2,-2,0
18:56:53.945790,-2,-5,-4,1,-1,-5,20,-11
18:56:53.946791,12,5,0,-1,-2,4,-4,16
18:56:53.960780,-3,-4,2,2,-2,-6,2,-4
18:56:53.968774,-8,-3,-3,-2,-4,-7,5,-6
18:56:53.982763,-4,-4,-1,0,-1,-10,-7,-5
18:56:53.983763,1,5,4,4,2,4,7,5
18:56:54.005750,3,-1,2,-2,-1,2,4,-1
18:56:54.006748,-1,-1,-2,-5,0,0,0,-4
18:56:54.020740,-2,0,1,1,-1,0,-1,-5
18:56:54.021742,-1,-1,0,2,-4,-4,-1,-2
18:56:54.042727,-2,-5,-2,-2,1,1,-9,-4
18:56:54.043727,0,-1,-1,-2,-5,-3,10,0
18:56:54.065715,1,-1,-4,-3,-4,5,5,2
18:56:54.073710,-10,-4,-1,-1,-1,-2,-1,-6
18:56:54.080706,-4,-5,0,-3,-2,1,-1,1
18:56:54.087701,-1,2,-1,-4,-1,-1,2,11
18:56:54.102690,-3,-1,-3,-3,-2,-1,-1,-3
18:56:54.103689,1,-2,0,-2,-1,-6,-5,-1
18:56:54.125678,-1,-1,-1,-1,-1,-1,-3,-4
18:56:54.126674,-2,0,1,2,-2,0,14,2
18:56:54.140669,0,4,-1,1,1,3,3,4
18:56:54.148664,-3,0,-1,0,0,1,0,-4
18:56:54.163653,-1,-1,1,-4,-40,-3,-4,-3
18:56:54.163653,0,-2,0,1,14,-2,-3,0
18:56:54.185641,-5,-5,1,-12,-8,0,1,-3
18:56:54.186639,6,6,1,7,11,4,1,-3
18:56:54.200631,0,-3,-2,0,0,1,-3,-2
18:56:54.208624,-7,-5,0,1,-1,-1,-3,-6
18:56:54.223616,0,1,0,-1,-2,-2,-16,0
18:56:54.223616,-1,1,-2,-2,-3,2,7,3
18:56:54.245604,-5,-1,1,1,2,-1,10,-8
18:56:54.246600,1,-1,-1,-7,-56,2,0,-3
18:56:54.260590,-3,0,-4,0,11,-4,-4,0
18:56:54.268588,-1,0,0,-1,1,-2,-1,-3
18:56:54.282580,6,4,2,-3,-4,-4,1,-2
18:56:54.283578,-1,2,0,3,3,3,2,3
18:56:54.305566,-2,1,2,1,-2,0,0,0
18:56:54.306563,-5,-2,-4,0,-1,-4,-1,-1
18:56:54.320556,1,3,0,3,-1,1,-1,-3
18:56:54.328562,3,1,1,1,1,-1,-1,0
18:56:54.343540,-7,-1,-1,1,-2,-5,-6,-6
18:56:54.350537,-1,-1,4,-1,-4,2,0,-2
18:56:54.365529,-4,-1,-1,-4,-1,1,-1,-2
18:56:54.366528,-5,-3,-2,-1,-1,-1,0,-3
18:56:54.380516,-3,-1,0,0,1,0,0,1
18:56:54.388515,-6,-1,-2,-2,-2,-4,-5,-4
18:56:54.410501,-2,-3,-4,-3,-2,0,-1,0
18:56:54.411498,0,-1,1,-1,-3,-2,-1,1
18:56:54.425492,-3,-4,-3,-2,-7,-1,0,1
18:56:54.426490,1,1,-1,0,5,-3,-4,-2
18:56:54.440480,-10,-7,-2,0,3,-4,8,-9
18:56:54.448478,-7,-5,-1,-6,-6,-4,-2,-5
18:56:54.470464,-1,-3,2,-1,3,1,1,-8
18:56:54.471460,-3,-4,-3,-3,-2,0,0,-6
18:56:54.485455,-5,-4,-1,0,-1,-1,-7,-4
18:56:54.486454,-3,-1,2,-2,-1,-3,-2,-7
18:56:54.500443,0,0,-2,-1,-2,0,1,2
18:56:54.508437,-3,-1,-1,0,0,-1,-2,-5
18:56:54.523431,0,-1,3,0,5,0,-3,-4
18:56:54.523431,-3,-3,-2,-1,-3,-3,15,6
18:56:54.545418,2,0,0,-2,-4,-6,-4,-2
18:56:54.546414,-6,-3,-3,-3,-1,-3,2,-2
18:56:54.560406,-8,-4,-2,-3,2,2,2,3
18:56:54.568403,-1,-4,-1,-5,-4,-6,-6,-3
18:56:54.583393,-8,-2,-4,-1,-5,-1,-4,-12
18:56:54.583393,0,-3,-1,0,0,1,-1,-1
18:56:54.605380,-3,0,-2,-2,-2,-2,-6,-9
18:56:54.606380,0,0,-1,0,1,2,3,-1
18:56:54.621368,-7,-5,-4,-3,-1,-3,-3,-2
18:56:54.628364,-2,3,-1,0,-1,2,-44,-1
18:56:54.643357,8,2,-2,-1,-6,-8,0,1
18:56:54.644356,1,3,0,0,-5,-2,6,6
18:56:54.665342,0,-1,-1,0,3,-4,-1,-4
18:56:54.666342,5,-1,0,-4,0,4,2,1
18:56:54.688329,3,2,-2,1,0,-3,3,3
18:56:54.689329,-4,-3,-1,-1,1,0,0,1
18:56:54.703320,-6,-3,-2,2,3,0,-2,-4
18:56:54.704316,-6,-3,-1,4,-4,-3,-1,-4
18:56:54.725304,-1,-8,-1,-2,4,-4,-24,-12
18:56:54.726302,-1,0,-3,-4,-5,-5,-3,0
18:56:54.748292,-4,0,-1,-1,-4,2,-3,4
18:56:54.749290,6,2,-1,-4,2,-7,-13,10
18:56:54.763283,2,-1,-2,0,-2,-2,1,-2
18:56:54.764286,-5,-4,-2,-1,-1,-3,1,-3
18:56:54.785266,-7,-2,-3,-3,1,-2,0,-3
18:56:54.786265,-3,2,2,3,-2,4,3,2
18:56:54.808252,5,1,-3,7,3,-3,-1,3
18:56:54.809254,-4,-2,-2,1,2,-2,-2,-4
18:56:54.823245,-5,-1,-4,-2,1,6,-7,-2
18:56:54.824245,-4,-3,-4,-4,-3,-10,-6,-12
18:56:54.846230,1,0,1,1,0,0,0,2
18:56:54.846230,7,0,4,-1,0,2,0,23
18:56:54.868217,1,3,-1,0,0,-7,-4,-4
18:56:54.869217,1,-1,0,-1,1,2,2,0
18:56:54.883208,-2,-1,0,-1,-1,-3,-2,-3
18:56:54.884207,-7,-3,0,0,1,-4,2,0
18:56:54.905192,-5,-3,-1,-3,-2,-1,-3,-1
18:56:54.906193,-6,-3,-3,0,-2,-5,-1,-4
18:56:54.928177,1,-1,-1,2,3,-3,2,0
18:56:54.929176,-2,-1,-3,-2,-3,0,5,3
18:56:54.943168,-7,-3,1,-3,-1,-2,2,-4
18:56:54.951163,7,-2,-2,-4,-2,-4,-4,4
18:56:54.966155,2,1,-4,1,-4,1,1,2
18:56:54.966155,-3,-2,-1,0,0,-1,-3,1
18:56:54.988143,2,2,-2,0,-4,1,1,-2
18:56:54.989139,-1,-2,1,-3,0,-1,-2,0
18:56:55.003131,-3,2,1,-2,3,0,-2,-6
18:56:55.011126,13,1,3,-3,-5,-2,-6,1
18:56:55.025117,0,3,1,1,2,2,-8,4
18:56:55.026117,-4,-1,-1,0,-2,-1,2,-4
18:56:55.048106,6,0,2,-1,-1,0,1,1
18:56:55.049105,-2,-4,-1,0,0,2,-2,-3
18:56:55.071089,-1,-3,-2,-2,2,1,-2,-2
18:56:55.071089,3,2,-3,-2,-1,2,3,3
18:56:55.086084,-4,0,2,-2,1,0,-15,-3
18:56:55.086084,-1,1,-2,-2,-1,-1,0,-2
18:56:55.108069,-9,-2,-4,-4,-2,-1,-1,-7
18:56:55.109066,-1,0,0,2,2,4,4,1
18:56:55.131053,0,-5,-3,-3,0,-3,10,-7
18:56:55.131053,4,5,0,1,2,1,20,-2
18:56:55.146042,2,-1,-1,-2,0,-3,0,-3
18:56:55.146042,-6,-2,1,-3,0,-3,-6,-10
18:56:55.168031,-3,-1,0,-3,-1,-5,-6,-7
18:56:55.169028,8,6,-1,1,-5,5,6,11
18:56:55.183019,-2,-3,-1,0,-2,-3,-3,-2
18:56:55.191018,-4,-1,2,-1,0,-6,14,-5
18:56:55.206008,0,1,0,1,-4,-3,-7,-6
18:56:55.206008,6,4,1,-1,0,-1,1,-1
18:56:55.227994,5,-1,4,4,0,2,3,4
18:56:55.228994,-4,-2,-2,1,2,-5,12,-1
18:56:55.250977,-4,1,1,0,-3,0,0,0
18:56:55.250977,-1,-1,-1,0,4,3,5,0
18:56:55.265971,-4,-1,-1,-1,0,-1,-5,0
18:56:55.265971,-5,2,-2,-3,0,-1,-4,-7
18:56:55.287954,-4,-1,0,-4,-3,-2,-1,0
18:56:55.288954,0,-3,-1,-4,-2,-5,-1,4
18:56:55.302948,-2,-2,-1,1,8,5,6,-4
18:56:55.303945,-2,-2,0,1,-3,0,-11,2
18:56:55.325930,-5,-2,0,-2,-3,-2,0,-4
18:56:55.325930,-9,0,-1,5,4,1,0,-5
18:56:55.347920,-2,-1,2,-4,-45,-2,6,-4
18:56:55.348919,-7,-4,0,-4,8,-2,1,-7
18:56:55.362911,-6,-4,-4,0,3,1,2,4
18:56:55.363910,-2,-1,-1,-6,-27,-2,-2,-4
18:56:55.385897,-5,-2,0,5,19,1,-3,-3
18:56:55.386896,-4,0,1,-3,-4,-4,-11,-4
18:56:55.407881,1,-1,-2,1,-4,0,2,1
18:56:55.408879,0,-1,2,1,-3,-1,-2,-3
18:56:55.423870,-8,-2,-2,2,1,3,-16,-6
18:56:55.430869,7,1,0,-12,-6,3,5,5
18:56:55.445860,-5,-12,-3,5,5,-5,-2,-2
18:56:55.446855,-11,-7,-2,-5,-5,-5,-13,-7
18:56:55.467844,0,-2,0,0,1,1,3,3
18:56:55.468845,0,-1,2,1,-1,-1,-1,-2
18:56:55.490831,7,2,2,1,2,2,12,19
18:56:55.491828,-1,0,-2,-2,0,-3,-4,-4
18:56:55.505822,-1,-5,-1,-2,-3,1,2,0
18:56:55.506821,3,1,-2,4,4,7,13,10
18:56:55.527807,-4,-1,-2,-2,-2,-2,-16,-1
18:56:55.528805,-6,-2,0,-2,-3,-2,-2,-8
18:56:55.550794,-4,-2,-2,7,0,3,0,-3
18:56:55.550794,9,6,-2,-2,-4,-2,-21,1
18:56:55.572780,-1,-2,1,-3,0,0,-10,5
18:56:55.573779,0,1,0,1,1,-1,0,3
18:56:55.587768,-5,-1,-1,0,-2,-5,-2,-7
18:56:55.588768,1,0,1,0,5,1,-4,-2
18:56:55.610755,-3,-2,-4,-2,-4,-4,-3,-9
18:56:55.611756,-6,-1,-2,1,-4,1,1,2
18:56:55.625748,-9,-2,-1,-1,-7,-7,-3,-5
18:56:55.626747,3,-3,-1,-1,-1,-4,-12,0
18:56:55.648733,-3,-2,0,6,2,0,4,-3
18:56:55.648733,-3,-2,-3,-3,-3,1,1,-1
18:56:55.670716,1,-4,-1,-5,1,-3,-14,1
18:56:55.671717,8,4,1,-2,-3,-1,0,7
18:56:55.685710,5,4,-3,-4,-2,-2,1,2
18:56:55.686709,-1,-1,4,3,0,0,4,2
18:56:55.707695,-1,0,0,1,-2,-1,-1,-4
18:56:55.708696,3,-2,-3,0,-2,2,0,3
18:56:55.730683,-1,0,1,2,-2,1,2,1
18:56:55.731680,11,3,-1,0,1,-1,-2,2
18:56:55.745673,-5,-4,-4,5,0,-3,-4,-2
18:56:55.746669,-3,2,-2,-3,1,1,-1,-3
18:56:55.767657,-2,1,2,2,-2,-1,5,-1
18:56:55.768656,1,-3,-1,-3,-3,-5,0,-1
18:56:55.790646,3,0,1,0,-2,4,15,-3
18:56:55.791642,-1,-2,-5,-1,-4,-11,-10,-5
18:56:55.805636,-7,-2,-2,-2,-2,-2,-1,-4
18:56:55.806633,1,-4,-2,-1,-5,1,0,-6
18:56:55.828620,-7,0,0,-3,-2,-7,-6,-8
18:56:55.828620,3,1,0,-3,-1,1,4,-3
18:56:55.850608,-1,1,0,0,-2,1,-1,1
18:56:55.851604,-2,2,-2,-2,1,0,-1,0
18:56:55.865599,-3,-2,0,0,-3,-3,-6,-3
18:56:55.866598,-3,-1,-3,3,-2,-3,4,-4
18:56:55.888582,-1,1,-1,-4,-3,-7,-14,-10
18:56:55.888582,4,2,-2,-7,-5,-1,19,10
18:56:55.910571,0,0,-3,-1,-2,0,2,0
18:56:55.911568,18,5,-2,0,-1,1,4,9
18:56:55.925562,4,0,2,0,-3,-4,-12,4
18:56:55.926558,-7,-3,0,0,0,4,0,-7
18:56:55.948546,-2,-3,-2,0,1,-1,2,0
18:56:55.949547,-2,-2,-1,-1,-1,-2,-1,-1
18:56:55.978525,-3,-3,1,0,2,1,-2,-3
18:56:55.978525,-5,-4,-4,-4,-3,-6,-5,-7
18:56:55.985524,-6,-4,-2,-2,2,2,-15,-9
18:56:55.986520,7,0,0,12,5,3,1,5
18:56:56.008508,-2,1,-3,-2,-3,-4,-2,-1
18:56:56.008508,0,-1,1,-6,-5,2,2,9
18:56:56.030496,-2,-3,0,-1,0,-1,0,-3
18:56:56.031494,-1,0,-1,1,-4,-2,-2,-1
18:56:56.045487,0,1,0,0,0,-3,0,1
18:56:56.046484,-3,1,-1,1,-8,-8,2,-2
18:56:56.068473,-4,0,-1,-1,-1,4,5,-2
18:56:56.075465,4,-4,-2,-2,1,1,-2,2
18:56:56.090459,-3,-2,-1,-1,-1,-1,4,1
18:56:56.091456,-1,1,-3,0,0,-3,-30,-4
18:56:56.105447,-4,-2,-2,0,1,3,9,4
18:56:56.106449,-2,0,-1,-13,-7,-1,3,-1
18:56:56.128432,-3,-3,-3,4,0,3,-1,0
18:56:56.128432,-5,-2,-1,-1,-1,0,-1,-4
18:56:56.150421,0,0,0,-3,1,-3,-2,3
18:56:56.151418,-2,0,2,1,0,0,1,0
18:56:56.165411,3,-3,-3,-1,-3,-3,-3,2
18:56:56.166409,-6,-1,-2,-2,-3,0,1,1
18:56:56.188398,5,3,1,-1,-2,-5,-3,-2
18:56:56.188398,-1,-2,2,-2,0,2,0,1
18:56:56.210382,0,1,0,0,1,2,0,4
18:56:56.211384,-1,-2,-1,3,-5,0,1,6
18:56:56.225372,10,3,-2,-2,-2,-2,2,-2
18:56:56.226377,-4,-4,-2,-3,-1,0,1,0
18:56:56.248359,1,1,-1,0,-3,2,-3,-5
18:56:56.249361,3,0,0,-3,-2,-1,-1,14
18:56:56.270345,1,1,-3,-3,-6,-7,-5,-6
18:56:56.271345,-3,-4,-1,1,1,-6,-3,-3
18:56:56.285336,-6,0,-3,-1,1,0,0,-6
18:56:56.286335,4,4,1,0,-1,-5,-4,-1
18:56:56.308324,-3,0,1,2,-3,-3,-5,0
18:56:56.309324,-2,1,1,2,1,3,15,16
18:56:56.331307,0,-1,1,1,-3,-5,-12,0
18:56:56.331307,-2,-5,0,1,1,0,0,0
18:56:56.346297,-7,-4,-1,-5,0,-6,-4,-4
18:56:56.353296,-1,-2,2,-5,-2,-3,-2,-2
18:56:56.368287,1,0,0,-1,1,0,5,8
18:56:56.369287,-6,-3,2,0,0,2,-3,-3
18:56:56.391271,3,2,1,1,-4,-5,-1,5
18:56:56.391271,3,4,-2,-2,0,-1,4,-3
18:56:56.413259,5,1,1,-1,-1,2,-6,1
18:56:56.414256,-1,-1,-3,-3,-2,1,-14,-15
18:56:56.428250,-6,-2,-3,-2,-1,-3,5,0
18:56:56.429246,-3,-2,-4,-1,-1,-2,2,-1
18:56:56.451232,1,-3,-2,0,0,0,-3,-3
18:56:56.451232,-4,0,-1,-1,3,1,-4,-7
18:56:56.473222,3,-2,-1,0,-6,3,4,0
18:56:56.474224,-5,-3,-3,-2,2,2,-3,-1
18:56:56.488213,-7,-3,0,-3,0,-2,-3,-7
18:56:56.489210,-5,1,1,2,-3,-2,8,-5
18:56:56.511195,-2,1,1,-2,-1,1,-7,-7
18:56:56.511195,0,-2,0,8,8,-1,-14,1
18:56:56.533185,3,-2,0,-1,-1,-2,2,15
18:56:56.534181,-6,-5,-3,-1,-1,-1,3,-1
18:56:56.548175,1,1,-1,-3,-3,-6,-10,-9
18:56:56.549173,0,2,2,0,0,-1,-3,-1
18:56:56.571158,8,1,-6,-4,0,1,1,2
18:56:56.572159,2,-2,0,-3,-6,-7,-5,3
18:56:56.593148,-2,-5,0,0,-5,-1,0,-1
18:56:56.594144,-6,-3,-1,3,7,2,3,-5
18:56:56.608138,0,-6,-2,-10,-4,0,-3,-2
18:56:56.609135,0,0,-2,-2,-10,-8,4,-6
18:56:56.631121,1,4,2,1,-4,-1,-16,1
18:56:56.631121,-3,-5,-1,-1,-3,-2,6,0
18:56:56.653111,13,1,-1,-11,-49,-3,7,15
18:56:56.654109,-4,1,2,23,48,0,1,-3
