timestamp,emg1,emg2,emg3,emg4,emg5,emg6,emg7,emg8
16:32:16.942172,2,2,1,4,2,1,-2,5
16:32:16.956163,-8,0,-1,-5,-3,-4,9,-9
16:32:16.956163,-1,-2,0,-1,-3,-1,0,-1
16:32:16.971153,1,-2,0,-2,0,0,-4,1
16:32:16.980148,0,-3,0,2,0,-3,5,0
16:32:16.993139,-4,0,2,-1,1,0,-14,-3
16:32:17.001138,-6,-1,-1,-2,-2,2,5,-6
16:32:17.016130,-1,-1,-3,0,-5,-8,-11,-11
16:32:17.016130,1,2,-1,-3,3,15,21,10
16:32:17.038114,-6,-1,0,-1,0,-5,-8,-8
16:32:17.039111,-3,1,3,-2,-1,-17,-36,-7
16:32:17.053103,1,-1,-2,0,1,0,9,9
16:32:17.062099,-3,0,-2,1,-3,-6,-3,-7
16:32:17.076088,5,-2,-1,1,1,8,9,5
16:32:17.083084,0,0,1,-2,1,0,-19,2
16:32:17.091079,-1,1,2,1,-1,6,8,-3
16:32:17.098075,-2,-2,1,1,-1,-2,9,-4
16:32:17.113066,-5,0,-1,0,-1,0,-9,-17
16:32:17.121064,1,2,1,1,4,25,28,11
16:32:17.136054,-3,-3,0,-1,2,-1,-2,-5
16:32:17.143047,-1,-1,1,1,0,3,3,-1
16:32:17.151045,-2,0,-4,-3,-2,-3,11,-2
16:32:17.158038,-1,0,1,1,2,8,-9,-3
16:32:17.174031,-1,-2,-2,-3,-5,-9,-6,-5
16:32:17.181026,-5,-2,-1,-1,3,5,9,-3
16:32:17.196017,1,3,2,2,5,-2,-10,2
16:32:17.203010,-5,-4,0,-4,-2,-2,-2,-6
16:32:17.219000,-1,-1,0,1,1,3,1,1
16:32:17.219000,-1,-1,0,-1,-2,0,-3,-4
16:32:17.233993,-5,-4,-4,0,-4,-3,-4,-2
16:32:17.240990,-4,-6,-3,-3,-3,8,22,0
16:32:17.255980,3,2,1,2,4,12,16,17
16:32:17.263976,9,0,-1,2,6,16,13,20
16:32:17.285962,-4,-2,-1,0,-3,-2,-4,-11
16:32:17.285962,-4,1,-1,-3,0,0,4,2
16:32:17.292957,-3,-4,0,-2,-4,-1,-4,-7
16:32:17.300953,-3,-3,0,-2,-1,-2,8,4
16:32:17.315944,-3,0,-2,-2,3,-1,0,-2
16:32:17.323935,-1,-4,-2,0,-1,0,3,-4
16:32:17.338929,4,1,-1,-2,-1,-3,0,7
16:32:17.338929,-7,-5,-2,0,-2,-4,1,-3
16:32:17.353917,-2,-6,0,-3,-4,-10,-12,3
16:32:17.360915,0,-1,-2,-2,-1,-4,14,8
16:32:17.375906,3,-4,0,-1,-3,-6,-15,-7
16:32:17.383902,-1,0,0,-2,-2,-6,-6,-4
16:32:17.398889,0,1,-3,-2,-3,-2,1,2
16:32:17.405888,-3,-4,-1,-3,-2,-6,-8,-3
16:32:17.413880,-1,-1,3,2,-1,3,24,2
16:32:17.420879,2,1,-4,-3,-3,2,0,-3
16:32:17.435869,-2,-3,0,-1,0,-3,-9,-7
16:32:17.442864,-2,0,0,1,3,13,32,-1
16:32:17.458854,3,-1,-2,-1,-2,-7,-1,1
16:32:17.458854,-2,1,-1,-2,-2,3,4,-5
16:32:17.473843,-2,-3,0,2,2,2,5,-1
16:32:17.480839,-4,0,-1,0,0,-4,6,-1
16:32:17.496830,-1,0,0,-2,-3,1,-8,-9
16:32:17.503825,-2,-4,-4,-2,-1,-2,4,5
16:32:17.518816,2,-3,0,-1,2,2,-11,-2
16:32:17.518816,0,0,1,3,5,5,16,2
16:32:17.533809,0,-2,-2,1,-4,-4,-1,-6
16:32:17.540804,-2,1,-1,-3,-2,-9,-36,-4
16:32:17.555793,2,-1,-2,-1,-2,-2,-6,12
16:32:17.563791,-4,-4,-2,-3,0,-5,-3,-5
16:32:17.578779,-3,0,-1,-3,-4,-3,-6,-1
16:32:17.585777,-3,-1,1,1,-1,-2,-1,1
16:32:17.593772,1,3,-1,0,0,1,2,-2
16:32:17.600765,1,-2,-1,-2,1,0,-5,-2
16:32:17.623752,-1,-2,0,0,0,0,1,-1
16:32:17.623752,-3,-4,-2,-1,0,0,-24,-18
16:32:17.638745,-2,-4,-1,-4,-1,-7,-26,7
16:32:17.646738,-2,0,0,5,3,3,-7,-7
16:32:17.653736,-4,-2,0,-1,0,9,8,-1
16:32:17.660728,-4,-4,-1,-2,-5,-7,-8,-8
16:32:17.675719,12,-1,-1,0,-2,1,8,2
16:32:17.683717,-3,-7,-2,-2,-1,-3,-6,-4
16:32:17.698708,5,1,-1,-1,1,-3,-1,4
16:32:17.713696,-4,-3,-3,-2,0,-1,-4,0
16:32:17.714699,0,-2,-1,-4,0,3,-10,-6
16:32:17.720692,4,-1,2,4,1,11,42,4
16:32:17.736686,3,-3,-3,0,0,1,-10,5
16:32:17.743680,-1,2,1,1,1,4,0,4
16:32:17.758671,-1,2,-1,-3,0,-5,10,-1
16:32:17.766663,-6,2,1,-1,-2,3,8,-2
16:32:17.773661,-6,-2,-3,-2,-2,8,23,-16
16:32:17.781657,7,0,2,5,1,-2,0,8
16:32:17.797644,-5,-3,-4,-2,-1,6,44,-13
16:32:17.803641,4,2,0,0,0,-6,-5,14
16:32:17.818634,1,1,0,3,4,7,12,12
16:32:17.825626,-3,-5,-2,-1,0,0,-2,-1
16:32:17.833625,4,1,1,0,1,7,40,7
16:32:17.840617,-2,0,0,1,0,4,9,-5
16:32:17.856610,2,-3,-2,-3,-2,5,5,10
16:32:17.871598,-3,-1,0,-1,-1,-1,-4,-4
16:32:17.879594,-3,-3,-2,-3,-1,-3,2,5
16:32:17.886595,-1,0,-3,-1,1,1,0,-12
16:32:17.901581,-8,-2,-3,-1,-3,-2,-7,-10
16:32:17.901581,-10,-2,-4,0,-3,10,15,-8
16:32:17.916574,-1,-1,0,1,2,7,16,13
16:32:17.923569,-2,-1,-1,0,-1,1,6,0
16:32:17.938561,0,-2,2,1,0,2,-3,1
16:32:17.946554,-3,-2,0,3,2,4,2,0
16:32:17.953548,-1,1,0,-1,-2,-2,-10,-5
16:32:17.960543,3,1,-3,-1,0,8,8,5
16:32:17.976534,-3,-3,-1,2,3,-5,-5,-7
16:32:17.983530,2,-1,1,-1,1,1,14,1
16:32:17.998523,-4,1,-2,0,0,-4,-6,-6
16:32:18.006515,-4,-1,-3,1,-1,-3,4,-6
16:32:18.013512,-2,-2,0,0,-4,-8,-9,-7
16:32:18.021508,-10,-3,-3,-1,2,-2,-14,-17
16:32:18.036499,4,2,0,-1,0,5,15,11
16:32:18.043496,-3,-3,-2,0,-2,0,14,-1
16:32:18.058486,-3,4,2,6,1,1,12,9
16:32:18.066478,-5,-4,-3,-1,-2,6,66,-2
16:32:18.073477,-4,-1,2,-2,-3,-7,-16,-13
16:32:18.081471,5,0,-2,1,1,8,11,4
16:32:18.096460,-5,0,-1,0,-4,-5,-10,-5
16:32:18.103459,8,2,1,-2,5,18,34,31
16:32:18.118449,6,1,2,1,2,5,6,12
16:32:18.126441,-3,-2,-3,0,1,-1,-5,-9
16:32:18.140434,-4,-3,-2,1,0,-4,-43,-3
16:32:18.141435,-5,-1,0,0,-1,2,7,-4
16:32:18.156426,-1,1,-2,-3,-3,-4,-10,-5
16:32:18.171414,1,-4,-1,-3,0,-2,2,4
16:32:18.179410,-3,-2,-1,-1,1,-2,-4,-5
16:32:18.186408,1,1,0,-2,-1,6,6,4
16:32:18.201396,1,0,1,0,-2,-13,-9,-5
16:32:18.201396,0,-1,-6,-3,-4,-2,0,2
16:32:18.216386,-4,-4,-3,0,-3,-3,-5,-4
16:32:18.223385,-3,-1,1,-2,3,-3,-7,-4
16:32:18.238374,-1,-1,-2,-1,0,3,-2,10
16:32:18.246368,-3,-1,-1,-2,-3,-1,-7,0
16:32:18.260358,-2,-3,-3,-2,0,-2,5,-3
16:32:18.261358,-2,-5,-1,2,3,-5,-15,-6
16:32:18.275353,2,0,-5,-1,-2,0,0,-2
16:32:18.283346,1,-4,0,0,1,1,0,1
16:32:18.298337,-4,1,1,0,-1,-3,-4,-1
16:32:18.305333,-4,0,-1,-1,1,-2,2,2
16:32:18.320321,-4,-1,-3,-1,-3,-2,-2,-1
16:32:18.321321,-9,-8,-1,-1,-2,-9,-5,-13
16:32:18.336315,1,-1,1,0,-1,-1,1,2
16:32:18.343311,-5,-1,0,-2,1,-3,-4,-4
16:32:18.358298,0,1,4,2,7,0,0,2
16:32:18.366297,-1,0,-2,0,1,0,-2,-2
16:32:18.388283,1,-1,-2,-6,-5,-3,2,7
16:32:18.389280,0,-2,0,-1,-1,-1,2,-4
16:32:18.396278,-1,-3,-4,0,-3,-4,-3,-2
16:32:18.403271,-2,-1,2,-2,1,-1,-1,-3
16:32:18.426257,-1,-3,-3,1,-1,-2,-4,-1
16:32:18.426257,-4,0,-3,-3,-2,0,0,0
16:32:18.441248,-16,-5,-4,-2,-2,1,-2,-5
16:32:18.441248,2,2,-1,2,2,-5,-3,10
16:32:18.456242,-11,-4,1,-1,0,-3,-1,-3
16:32:18.464236,-5,-4,0,1,-1,-11,-25,-4
16:32:18.478227,0,-1,-3,-3,-3,-3,-2,-2
16:32:18.493216,-2,-1,1,-4,2,3,3,11
16:32:18.501211,-3,-5,-3,-2,-3,0,1,-1
16:32:18.501211,-4,-3,-3,1,-3,-5,10,-5
16:32:18.516205,2,0,-1,-2,-4,-8,-5,-2
16:32:18.523198,8,-1,2,2,6,13,38,43
16:32:18.546183,0,1,0,0,-3,-7,4,6
16:32:18.546183,-2,-1,-1,-2,3,1,1,-8
16:32:18.561174,-1,-2,1,-2,3,10,7,-3
16:32:18.561174,0,1,-2,-2,0,0,10,12
16:32:18.576168,-6,-4,1,-2,-3,1,-10,-13
16:32:18.583161,-9,-6,-5,7,3,-7,-13,-26
16:32:18.599153,-1,-4,-3,-15,-14,0,32,-7
16:32:18.606149,5,2,2,8,5,2,-3,-3
16:32:18.621137,-12,-4,-4,-4,-9,-5,5,-30
16:32:18.621137,7,1,0,-7,1,-9,-14,29
16:32:18.636131,-4,-3,1,3,-3,-16,-8,-13
16:32:18.643125,2,-1,-2,0,8,25,44,40
16:32:18.659116,-5,0,-2,6,3,-8,-7,-7
16:32:18.666112,-4,3,-1,-15,-10,5,8,-18
16:32:18.681100,1,3,-1,2,0,5,-15,4
16:32:18.682099,3,-1,1,1,6,-4,10,-6
16:32:18.696094,-3,1,-1,0,-11,1,0,-7
16:32:18.703090,-6,-3,0,-2,6,7,1,-4
16:32:18.719077,-3,0,1,2,6,-1,18,10
16:32:18.726075,-8,-6,-2,0,1,25,2,-3
16:32:18.741066,-1,1,-1,4,2,-6,-4,-6
16:32:18.741066,-7,-3,-4,-5,-3,-9,3,-6
16:32:18.763051,5,3,1,-3,-1,1,-9,-1
16:32:18.764049,-7,-4,-3,-1,-5,-6,-3,-4
16:32:18.779040,-2,0,0,-3,2,6,35,-5
16:32:18.786038,4,1,0,4,5,1,-9,4
16:32:18.808022,0,-2,2,2,2,-3,5,-2
16:32:18.809022,-6,-2,-1,-4,2,11,1,1
16:32:18.816020,-5,-4,-3,1,0,0,-3,-10
16:32:18.823016,-1,-4,0,4,-9,-1,4,-3
16:32:18.839004,-2,1,0,10,8,1,1,-5
16:32:18.845999,-4,-2,-1,-1,-2,-1,-1,3
16:32:18.867985,-5,-4,-3,10,3,-2,-3,-4
16:32:18.868984,-2,-3,-1,1,34,5,-1,6
16:32:18.875983,1,2,5,4,-12,-3,0,1
16:32:18.883975,-1,-2,-6,-2,6,3,2,1
16:32:18.898966,1,-1,10,6,5,-1,-2,-2
16:32:18.905965,-1,-2,-7,-12,-9,1,1,0
16:32:18.920956,-1,0,-6,2,0,2,2,2
16:32:18.921955,2,1,7,5,1,1,0,0
16:32:18.935946,-2,-3,-15,-22,-16,-3,-2,-3
16:32:18.943942,0,-3,-19,7,6,0,1,2
16:32:18.957947,-11,-12,-15,-14,-14,-7,-8,-8
16:32:18.965925,1,3,11,-4,-1,-4,2,1
16:32:18.980916,-6,-5,10,20,2,-1,-4,-6
16:32:18.987934,3,0,-51,-54,46,12,6,4
16:32:18.995907,6,21,63,2,-58,-5,0,1
16:32:19.002904,-8,-20,-4,41,-33,-12,-8,-8
16:32:19.017896,6,21,44,86,15,3,1,1
16:32:19.025887,-1,-11,-6,-28,-114,2,-3,0
16:32:19.040878,2,21,28,121,127,44,5,1
16:32:19.048883,13,21,32,-7,-128,-37,3,4
16:32:19.062865,-24,-36,-11,19,-35,-51,-19,-20
16:32:19.063864,28,43,76,74,35,30,19,21
16:32:19.078857,2,-12,-20,-128,-84,8,3,5
16:32:19.092848,11,38,40,100,79,53,7,-1
16:32:19.100841,-30,-50,-70,-128,-128,-60,-22,-17
16:32:19.107837,-20,-17,54,127,-51,32,-4,-17
16:32:19.123827,-66,-99,-7,127,127,52,-53,-44
16:32:19.123827,45,107,57,-128,-128,-128,16,24
16:32:19.137818,43,32,-107,-128,-128,-13,32,36
16:32:19.145813,-16,22,74,127,26,6,-11,-17
16:32:19.160804,39,68,-59,-128,-128,28,28,20
16:32:19.167801,-34,-47,10,-128,127,-63,-41,-30
16:32:19.182792,-2,-38,-104,-15,-128,-60,-4,7
16:32:19.183790,19,41,40,-91,127,53,12,14
16:32:19.198781,8,-58,-66,-22,44,-14,6,16
16:32:19.205777,7,23,10,40,-2,15,14,13
16:32:19.220767,13,22,14,-33,-44,-6,1,7
16:32:19.228763,6,23,17,12,-128,-2,4,-3
16:32:19.242754,-26,-86,-81,50,7,13,-10,-7
16:32:19.243754,2,20,16,-27,-22,0,-1,-2
16:32:19.257745,26,44,15,-91,-128,-46,11,10
16:32:19.265739,-44,-98,-75,127,127,-3,-18,-16
16:32:19.280730,47,127,57,-128,-128,-50,-5,5
16:32:19.287726,-55,-62,-77,-122,87,-36,-17,-21
16:32:19.302717,16,19,-28,61,127,119,13,9
16:32:19.303716,8,-12,-19,-14,-66,-23,9,11
16:32:19.318707,-11,-7,38,-128,-128,-74,-20,-12
16:32:19.325702,-44,-128,-75,122,127,67,9,-1
16:32:19.347690,93,127,96,-128,-128,-69,-1,24
16:32:19.348689,-16,-30,18,127,-41,117,14,-1
16:32:19.362680,-94,-128,-128,-128,68,98,-20,-39
16:32:19.363679,31,50,25,-110,127,127,9,8
16:32:19.385666,51,127,127,127,127,-14,6,7
16:32:19.386667,-13,-70,-107,-65,-128,-86,1,9
16:32:19.400658,37,60,34,-128,13,29,8,12
16:32:19.408658,-73,-128,-114,84,127,64,-17,-26
16:32:19.422644,-27,-30,0,127,7,34,-11,-18
16:32:19.423642,17,28,10,-117,-111,1,2,6
16:32:19.438633,26,49,-6,-79,-128,-128,-1,7
16:32:19.446628,-5,-12,33,127,-101,36,2,4
16:32:19.462619,-7,-13,-23,-82,80,-31,1,1
16:32:19.468615,21,93,98,15,-128,21,4,2
16:32:19.483606,-38,-62,-40,-42,-128,-56,-11,-13
16:32:19.484605,10,29,25,94,-90,6,2,4
16:32:19.505592,95,127,127,-55,-128,-39,7,20
16:32:19.505592,-25,-15,7,66,-128,79,-4,-13
16:32:19.520586,50,113,89,65,-37,-41,5,16
16:32:19.528578,-35,-90,-76,-108,127,-1,-13,-17
16:32:19.542569,17,30,49,-18,127,8,7,4
16:32:19.543568,-17,-45,-25,57,-86,-10,-7,-3
16:32:19.565555,17,46,26,-35,127,87,1,3
16:32:19.573549,-17,-31,-23,-41,64,-40,-6,-7
16:32:19.580545,-23,-50,-38,-15,-51,24,4,-7
16:32:19.588540,15,48,16,-54,67,17,3,4
16:32:19.602532,-44,-72,-45,-14,42,56,-10,-23
16:32:19.603532,8,17,24,-26,-128,-62,-1,6
16:32:19.618523,-14,-16,1,125,41,42,-3,-11
16:32:19.625517,4,13,19,112,127,37,0,-2
16:32:19.640509,7,-3,20,29,127,-8,10,4
16:32:19.655500,23,31,8,-25,-35,-11,6,8
16:32:19.670491,10,22,6,-67,-10,-12,-1,2
16:32:19.671490,-13,-19,-4,87,127,30,2,-5
16:32:19.678485,-4,-12,-15,-70,-63,32,2,-3
16:32:19.693476,-11,-24,-17,20,120,-6,5,0
16:32:19.700472,1,7,12,45,71,38,5,2
16:32:19.708467,-2,-10,-12,15,127,66,3,-2
16:32:19.722458,18,20,-14,-112,127,17,4,9
16:32:19.723458,-21,-46,-45,-64,-128,-73,-9,-8
16:32:19.738449,20,35,19,82,127,23,11,12
16:32:19.746444,4,9,-8,-35,127,23,1,4
16:32:19.760435,0,-10,-20,-65,-91,-36,-3,-1
16:32:19.768430,7,19,19,-27,-128,-10,2,8
16:32:19.791415,-22,-53,-42,-49,-66,-29,-10,-3
16:32:19.791415,-4,-14,-20,127,127,20,3,0
16:32:19.798412,2,2,-1,-44,-98,-34,-7,-4
16:32:19.805407,8,37,14,-84,-6,15,0,-2
16:32:19.820398,-6,-23,-26,-49,127,68,0,0
16:32:19.828393,-3,-9,-11,-7,127,-2,-1,-1
16:32:19.843383,8,-12,-12,21,-80,-113,-1,4
16:32:19.843383,0,-8,20,127,-77,61,5,-3
16:32:19.858378,-27,-42,-27,8,-128,-34,-12,-13
16:32:19.873366,21,40,29,-90,-70,-13,4,8
16:32:19.881361,-2,-1,1,-6,-37,11,3,1
16:32:19.888356,4,0,-7,-79,127,-6,4,4
16:32:19.903347,3,7,15,31,43,43,4,3
16:32:19.918337,-2,0,2,22,56,15,2,-3
16:32:19.918337,10,25,18,-120,-128,-47,-3,0
16:32:19.925334,-14,-22,-16,-12,-31,-8,-7,-5
16:32:19.940324,18,28,24,17,127,26,10,9
16:32:19.948319,-5,-1,39,127,11,27,-1,-6
16:32:19.963310,5,5,0,-27,-20,-5,1,1
16:32:19.970306,15,26,28,9,-71,5,10,2
16:32:19.985296,2,24,17,-24,-128,12,-2,-3
16:32:19.986297,-7,-14,-2,22,-79,-29,-8,-7
16:32:20.001286,2,11,8,48,127,24,1,1
16:32:20.008282,33,64,47,-26,54,-16,7,12
16:32:20.023275,-3,-1,1,10,-45,0,-1,-1
16:32:20.031270,3,11,12,24,-116,-5,0,0
16:32:20.045264,-13,-20,-15,74,127,70,-4,-11
16:32:20.046259,3,8,-23,-86,-128,-44,-6,0
16:32:20.061250,-28,-44,-37,29,32,3,-13,-13
16:32:20.068247,18,27,4,-106,-69,-24,1,7
16:32:20.090232,-23,-25,-9,20,-128,-14,-6,-15
16:32:20.091232,-4,17,-1,-91,-128,-74,-11,-7
16:32:20.105224,35,70,39,-128,-128,-16,8,13
16:32:20.106222,-34,-45,-45,-93,-128,-83,-17,-14
16:32:20.121213,35,83,50,84,38,67,5,9
16:32:20.128211,-7,-24,-8,40,48,-9,5,3
16:32:20.151196,16,42,48,127,74,45,4,6
16:32:20.151196,-8,1,21,8,-117,-12,-8,-5
16:32:20.165187,1,-14,-35,-90,-128,9,5,2
16:32:20.166186,1,4,7,25,115,9,-3,1
16:32:20.181176,-6,-7,-11,-15,-50,-3,-4,-5
16:32:20.188173,-2,-2,-3,-15,-33,-8,2,0
16:32:20.203163,0,-1,-1,0,-5,-1,-2,0
16:32:20.226148,0,-1,-1,1,-2,-4,0,-1
16:32:20.226148,4,2,1,-1,3,-10,-11,-3
16:32:20.227148,6,-3,-8,-10,-6,-3,42,8
16:32:20.241139,2,14,6,7,1,-11,-11,-39
16:32:20.248135,25,19,3,5,8,5,1,20
16:32:20.263126,-17,-19,-1,6,7,20,12,48
16:32:20.271121,112,11,2,-3,-10,-12,-128,-13
16:32:20.287112,38,-6,-1,4,23,12,127,66
16:32:20.287112,-57,-29,-28,-31,-27,-70,-128,84
16:32:20.320091,-17,18,-11,-17,-37,-54,127,-71
16:32:20.320091,127,8,4,-3,9,79,110,127
16:32:20.343076,-128,6,-49,-44,-80,-58,127,-128
16:32:20.343076,75,0,1,7,-3,-19,127,30
16:32:20.346075,-51,2,20,21,34,53,-82,-19
16:32:20.346075,11,2,-9,-9,-7,-10,127,3
16:32:20.361066,-39,-14,-28,-128,-128,-36,38,-17
16:32:20.368061,-5,-5,8,27,127,5,-35,-11
16:32:20.383053,-23,49,18,18,-27,0,-41,-35
16:32:20.398042,-12,-5,-54,127,-128,-123,-100,-8
16:32:20.407037,-93,-17,4,37,-128,5,-33,-49
16:32:20.408037,2,-71,-31,-76,-77,17,-19,42
16:32:20.422028,72,55,45,-72,-128,20,22,67
16:32:20.436019,49,-12,7,127,127,20,-10,4
16:32:20.448012,-23,35,13,-128,-92,34,5,-33
16:32:20.451011,10,6,-2,15,127,-56,-128,52
16:32:20.469999,-17,16,8,-45,127,-63,-4,-46
16:32:20.469999,-108,24,5,60,61,-2,22,-39
16:32:20.480993,-48,9,7,13,-80,-10,0,-16
16:32:20.488987,-10,9,29,40,127,14,-58,-23
16:32:20.502978,-9,-8,6,-28,-103,-47,-4,-57
16:32:20.510973,-39,-19,-12,-10,58,8,-18,-6
16:32:20.525964,-9,9,8,-97,-128,-13,-10,-16
16:32:20.525964,11,21,46,127,90,-4,-2,26
16:32:20.540955,-27,-35,-24,-65,107,-53,-91,-27
16:32:20.547951,41,12,16,-52,127,47,35,59
16:32:20.562942,8,-6,2,71,103,-20,-60,1
16:32:20.570936,35,5,-1,-26,-62,0,-24,46
16:32:20.592922,-5,1,7,25,57,6,-10,22
16:32:20.593923,10,17,-9,39,31,43,22,77
16:32:20.600919,-16,1,-6,0,48,-22,0,-12
16:32:20.615910,-20,-7,8,20,-128,-10,-20,-55
16:32:20.622907,-10,-5,-17,-123,-112,-22,-117,-11
16:32:20.630900,1,0,-1,-53,127,-8,-72,44
16:32:20.645891,-25,-9,-23,-110,-1,35,19,-12
16:32:20.645891,24,3,9,25,-29,21,22,-3
16:32:20.660884,-9,-6,-10,-16,-128,3,8,7
16:32:20.667879,3,0,-10,-116,-128,2,-1,3
16:32:20.682870,-17,-3,-9,18,42,3,16,-4
16:32:20.690862,21,11,-14,-97,37,22,33,59
16:32:20.705854,-37,-19,7,85,-42,4,-9,-47
16:32:20.705854,15,3,-17,16,31,23,99,-15
16:32:20.720845,-25,-4,-13,-33,-65,3,-8,-22
16:32:20.728842,37,15,17,-128,-128,36,41,40
16:32:20.743831,-12,-3,6,77,70,15,-7,-6
16:32:20.750829,3,5,6,-3,-87,-3,22,6
16:32:20.765820,-4,-3,-6,-21,-15,4,-1,-1
16:32:20.766816,-3,-7,-21,-26,-128,-29,2,-4
16:32:20.780810,-11,-9,3,40,124,5,-27,16
16:32:20.788802,2,3,-5,-16,-20,-23,8,10
16:32:20.803794,5,0,5,80,-26,12,32,19
16:32:20.810791,-17,-6,-3,48,-77,-2,59,-36
16:32:20.825783,-2,-1,-2,45,-29,-10,-10,-2
16:32:20.826779,4,5,4,4,-41,1,2,19
16:32:20.840773,-4,-1,-4,-71,-69,-6,8,-3
16:32:20.848769,3,-1,-2,16,18,9,6,8
16:32:20.863760,7,2,2,74,46,14,26,24
16:32:20.870754,-5,-2,0,90,33,8,28,-15
16:32:20.885743,13,-1,1,11,23,-13,-31,27
16:32:20.893740,-16,-2,0,2,-2,-2,16,19
16:32:20.900733,0,-4,-6,32,71,5,-12,-6
16:32:20.908729,-1,0,3,14,51,2,1,1
16:32:20.923723,-6,-5,-5,-1,24,12,-13,18
16:32:20.938713,2,1,-3,-100,-84,-6,6,-5
16:32:20.946706,-4,-3,-1,35,11,-2,-10,-10
16:32:20.953704,-1,-4,-2,37,26,0,-1,8
16:32:20.968691,-2,0,1,4,-2,2,-5,2
16:32:20.968691,-3,1,-1,-3,1,20,80,-3
16:32:20.983686,2,3,1,-3,3,10,1,3
16:32:20.990679,-6,-2,-2,-51,-19,-9,-11,-4
16:32:21.005670,4,2,0,12,3,2,29,12
16:32:21.013664,-1,-3,-3,-3,-6,-4,-2,15
16:32:21.028658,0,-2,0,-1,1,17,2,5
16:32:21.028658,2,-1,-4,-12,-5,-10,-1,31
16:32:21.043646,-5,-4,0,-1,1,1,3,-8
16:32:21.051644,-1,-1,-3,-1,-3,-1,-6,-6
16:32:21.066632,3,-3,-3,-3,-1,-18,-50,23
16:32:21.073630,-5,0,0,2,-1,-5,-11,-16
16:32:21.088618,6,3,-1,3,-10,27,64,6
16:32:21.089623,7,3,-2,22,13,23,30,32
16:32:21.103612,-4,-2,-2,3,0,5,23,-9
16:32:21.111604,0,1,0,2,3,8,4,2
16:32:21.126594,-5,-4,-3,-2,5,9,10,-11
16:32:21.133594,3,1,0,1,-1,3,37,-9
16:32:21.148585,12,-3,1,-3,4,18,30,32
16:32:21.148585,-7,0,3,3,-1,-6,-1,-16
16:32:21.163573,-1,1,-4,2,0,1,-9,-5
16:32:21.170567,-3,-2,-2,0,-2,0,5,4
16:32:21.186565,-1,-2,-4,-3,1,14,4,-2
16:32:21.193554,-4,-2,-1,-2,4,-3,-1,-5
16:32:21.208547,3,1,1,3,4,9,13,5
16:32:21.209545,-8,1,-1,-1,-1,-1,-3,0
16:32:21.223538,-11,-4,-4,-6,-9,-29,-71,-16
16:32:21.231533,10,1,0,-2,-4,-4,42,36
16:32:21.246521,-4,0,-1,1,0,-12,-28,-15
16:32:21.253520,-7,-6,-5,-3,-3,-8,-15,-13
16:32:21.268510,-5,-2,-4,-2,0,-3,0,-10
16:32:21.268510,-3,-4,-1,-2,1,-3,-2,-9
16:32:21.283501,10,6,2,-2,3,7,15,15
16:32:21.291495,12,3,3,0,5,14,4,11
16:32:21.306485,-6,-1,-1,-1,-3,-3,-44,0
16:32:21.328473,-13,-7,-3,0,-6,-12,-20,-18
16:32:21.329470,-2,-1,0,-1,-4,-5,-10,3
16:32:21.330469,-4,1,-2,-1,-2,-5,-5,-12
16:32:21.343464,-4,-2,-1,-3,-2,16,-1,11
16:32:21.351458,5,-4,-1,-4,0,-1,-14,-3
16:32:21.366447,-1,-3,-2,-4,-4,-22,3,-2
16:32:21.373446,-11,-5,-2,0,0,10,36,5
16:32:21.388437,11,3,3,3,2,1,7,19
16:32:21.389437,-4,-2,0,-3,-3,-4,24,-8
16:32:21.403427,12,5,2,4,4,4,28,35
16:32:21.411420,-6,-1,0,-2,-1,-1,-3,-4
16:32:21.426410,-3,-1,3,4,1,-3,-3,-8
16:32:21.433409,0,-1,-4,1,6,16,13,13
16:32:21.449395,2,0,-1,-1,-1,-33,-7,-1
16:32:21.450395,-6,-3,-2,-4,-4,-11,-37,-13
16:32:21.463387,-2,-2,0,1,1,4,-3,-5
16:32:21.470384,8,0,-1,1,5,2,-8,32
16:32:21.485374,-6,-4,-3,-1,-2,-14,-8,-25
16:32:21.493369,-8,-4,-3,-3,1,9,3,-2
16:32:21.508360,-4,-5,-3,-3,-6,-8,-7,-12
16:32:21.508360,6,1,-1,-1,-2,-9,-8,7
16:32:21.523349,-12,-6,-1,-4,-2,-4,22,6
16:32:21.530346,-1,1,2,-2,-5,-11,5,-3
16:32:21.546336,-5,0,1,1,3,2,-10,-9
16:32:21.553331,-11,-7,-3,-4,-4,6,40,-31
16:32:21.575317,4,-1,-3,-3,-5,1,11,6
16:32:21.576318,-4,-3,-3,-2,2,13,3,-6
16:32:21.583312,-10,-4,-3,-3,-8,1,9,-22
16:32:21.590308,10,2,-2,-1,-5,-9,3,6
16:32:21.605303,-5,0,2,-1,-5,-3,1,-4
16:32:21.613294,-6,-5,-3,-4,0,-2,8,-3
16:32:21.628286,3,1,-2,0,1,-7,-18,5
16:32:21.628286,-3,-1,-2,-1,0,-2,1,-1
16:32:21.643276,-10,0,0,-1,3,5,-10,-5
16:32:21.658267,-3,-8,-8,-9,-9,-27,-26,0
16:32:21.666262,-10,-3,-1,-1,3,-12,-13,-27
16:32:21.673258,-5,-2,1,3,0,8,50,1
16:32:21.695245,17,6,4,2,5,4,-2,25
16:32:21.696252,-2,1,0,2,7,-13,20,-28
16:32:21.703238,15,6,1,0,2,9,8,11
16:32:21.710238,-6,-5,-3,-3,-3,-15,-22,-13
16:32:21.725228,4,0,1,-4,0,-3,-13,34
16:32:21.733220,-7,-3,-1,-2,-6,-12,-6,-8
16:32:21.748212,3,-2,-4,0,2,6,3,-5
16:32:21.748212,2,-1,3,3,7,1,-24,7
16:32:21.763204,-3,-2,-1,-2,0,-1,0,-2
16:32:21.770197,-5,-3,-3,-1,-1,-2,1,-7
16:32:21.793185,8,4,-2,1,0,-8,-12,11
16:32:21.793185,3,-2,-1,-1,3,9,6,6
16:32:21.816170,-5,-1,1,2,-3,-1,-2,-6
16:32:21.816170,-3,-4,0,-2,0,0,0,0
16:32:21.823165,1,0,-1,0,0,1,-4,2
16:32:21.831160,-3,0,-1,-3,0,2,4,1
16:32:21.846151,-5,-2,-1,-1,-6,-13,-7,-14
16:32:21.853146,-2,0,-2,-1,-5,-15,19,3
16:32:21.868137,-3,1,2,-3,-4,-1,6,-18
16:32:21.875134,-7,-6,-3,-2,1,-4,-2,-12
16:32:21.883128,-6,-2,-1,-3,-6,-8,-7,-11
16:32:21.898119,8,2,-1,-2,-1,-2,-6,6
16:32:21.906116,0,2,-1,-1,-4,-2,-14,-3
16:32:21.913111,1,-1,3,1,-1,-3,2,3
16:32:21.928101,1,0,1,-2,-3,-12,-16,-7
16:32:21.936097,-10,-7,-4,-2,-2,-28,-22,-22
16:32:21.951087,10,4,4,3,4,4,17,8
16:32:21.951087,-12,-1,1,0,-6,-14,-14,-16
16:32:21.966078,-7,-5,-1,1,2,1,-29,-15
16:32:21.973079,-3,-3,-4,-2,-2,-1,5,5
16:32:21.988072,0,3,1,1,-2,-4,11,-4
16:32:21.996059,4,-2,-1,1,2,-2,-9,16
16:32:22.010053,-4,1,-4,-1,-1,-8,10,-11
16:32:22.011049,7,2,-2,-4,1,16,52,35
16:32:22.026042,-5,-3,-4,-5,-4,-5,-4,4
16:32:22.033075,0,-2,2,1,-4,-5,-10,7
16:32:22.048079,0,-1,1,-3,3,12,19,-7
16:32:22.071013,-3,0,-5,-4,-8,-6,2,-3
16:32:22.071013,-3,0,-1,-2,-3,-4,0,-8
16:32:22.072012,1,-1,0,1,0,2,2,2
16:32:22.086005,-3,0,2,2,0,-21,12,-3
16:32:22.093080,0,-2,-1,0,-4,4,4,4
16:32:22.107994,-7,-3,0,-2,-5,-2,1,-9
16:32:22.122980,2,5,5,4,7,15,-1,-3
16:32:22.130976,-8,-3,-1,2,8,4,16,-12
16:32:22.130976,4,1,-1,-1,6,16,24,2
16:32:22.145967,0,-2,0,2,6,4,3,-7
16:32:22.152968,1,-2,0,-2,0,4,1,3
16:32:22.168953,2,2,1,1,5,0,-30,7
16:32:22.175952,-3,0,-1,-1,-1,-1,9,-5
16:32:22.198937,-5,-3,-2,-5,-2,-1,2,-7
16:32:22.198937,8,5,1,2,1,-5,-9,15
16:32:22.205933,-5,-4,-1,-4,-3,-11,-25,-14
16:32:22.213925,-4,-2,-6,-3,-3,-8,-12,0
16:32:22.228916,-5,-8,-4,-7,-4,4,35,-7
16:32:22.235915,3,-1,-2,-1,-2,1,3,2
16:32:22.250906,-6,-5,-3,-3,-5,-2,1,-3
16:32:22.251904,0,0,-1,0,4,26,26,-3
16:32:22.265896,19,6,0,1,2,20,7,14
16:32:22.273889,-4,-2,2,3,3,1,-7,-17
16:32:22.295877,-7,-3,-3,1,-6,-3,-8,-11
16:32:22.296877,-6,-1,-1,-1,6,4,-2,-1
16:32:22.310868,-3,0,-1,-3,-2,-4,-33,-6
16:32:22.311868,-2,0,0,-4,0,8,4,-6
16:32:22.325856,5,1,-2,0,-4,-5,-3,-1
16:32:22.340849,-4,-3,0,-3,1,2,-4,1
16:32:22.348845,1,1,0,1,-1,-4,5,1
16:32:22.356837,1,0,-2,0,1,1,-12,7
16:32:22.371828,-3,1,0,1,-2,-8,-9,-5
16:32:22.377824,9,5,5,6,6,11,17,22
16:32:22.385819,5,1,0,1,0,-3,6,-3
16:32:22.392815,-2,0,2,1,2,12,14,3
16:32:22.407807,-4,0,-4,-1,1,20,-6,2
16:32:22.415806,0,-2,-2,0,0,-6,2,-4
16:32:22.430792,-1,0,-1,0,-2,-5,-3,-6
16:32:22.430792,1,-3,-2,-1,-1,6,-14,5
16:32:22.445783,-3,-4,-3,-3,-4,-6,-5,-19
16:32:22.452780,-3,-2,2,-3,1,-3,-5,-3
16:32:22.468770,3,1,0,-4,-2,-10,0,2
16:32:22.475764,-2,0,-1,-1,3,23,35,3
16:32:22.490755,-2,-1,-1,-1,-3,-7,-8,-1
16:32:22.490755,-5,-5,-1,-1,-1,-23,-5,-5
16:32:22.505744,-4,-1,-2,-1,-4,-3,-4,-8
16:32:22.512744,-3,0,1,1,5,5,8,2
16:32:22.528732,0,0,-3,-1,-4,-5,-4,-3
16:32:22.535726,-3,1,1,0,-4,-5,-47,-11
16:32:22.550718,4,1,-1,1,2,12,21,17
16:32:22.551717,-2,-1,-4,-2,-1,-3,4,-4
16:32:22.565708,-4,-1,3,2,0,-29,-43,-8
16:32:22.572712,0,-1,0,1,-6,-4,-10,-2
16:32:22.588695,-4,-4,-4,1,0,-5,8,10
16:32:22.595690,-2,-3,1,-2,2,4,4,-7
16:32:22.610680,-2,-1,-1,-1,-2,-2,11,-1
16:32:22.610680,-3,1,-1,1,-1,-11,-51,-15
16:32:22.625672,4,-1,1,0,-1,1,14,5
16:32:22.633670,-2,-3,0,1,-2,-2,0,2
16:32:22.648659,5,1,-1,3,2,-1,-6,3
16:32:22.655654,-2,1,-4,1,3,3,5,2
16:32:22.678639,3,-2,-2,-3,2,1,-13,10
16:32:22.678639,4,-1,-1,-3,-6,-25,26,3
16:32:22.685637,-3,1,3,2,-1,1,-4,-4
16:32:22.693633,3,-5,1,-2,0,1,31,11
16:32:22.708624,-1,-3,-2,2,-1,-6,-10,-5
16:32:22.716619,8,-2,0,-6,-3,-14,-11,17
16:32:22.731609,0,-1,0,-1,0,0,2,-6
16:32:22.738602,-7,0,-4,-1,-2,-3,-3,-8
16:32:22.745600,-3,-6,0,-2,1,0,39,0
16:32:22.753596,0,-3,0,-2,-5,-7,-7,-6
16:32:22.768587,-4,0,0,-1,-1,-3,-1,-4
16:32:22.775580,-8,-6,-5,-3,-1,0,-11,-11
16:32:22.791572,7,2,0,0,1,1,-11,31
16:32:22.798569,-8,-2,-3,-3,-6,-6,-3,-6
16:32:22.805564,-1,-3,-3,0,-1,-1,10,-1
16:32:22.813556,-1,0,-3,-2,-1,8,5,6
16:32:22.828550,-3,-2,0,-1,-3,-6,-4,-8
16:32:22.836542,-6,-2,-3,0,0,5,4,-1
16:32:22.851533,6,3,1,2,5,-1,-15,9
16:32:22.858532,-7,-5,0,-3,-2,-10,-7,-9
16:32:22.873522,-10,-5,-4,-3,-7,-9,7,-35
16:32:22.874523,4,0,-2,3,2,-8,6,1
16:32:22.888510,-2,-2,-1,0,-1,-1,2,-8
16:32:22.895508,-3,-2,-2,0,1,-4,-5,-9
16:32:22.911501,6,-2,1,-1,0,-6,-2,0
16:32:22.918495,0,-1,4,1,4,5,6,4
16:32:22.933486,1,1,-1,-2,-1,4,3,3
16:32:22.934481,3,1,-1,2,4,6,3,8
16:32:22.957470,-7,-2,0,1,-1,3,5,-2
16:32:22.958468,7,-3,-3,-3,-1,7,0,11
16:32:22.971461,-5,-2,-1,-1,-2,-5,-2,-11
16:32:22.978455,-2,-2,-4,-2,-2,-5,6,-2
16:32:22.993445,-2,-3,-1,0,-1,2,10,-1
16:32:22.993445,-1,-1,-2,-1,0,1,-1,-6
16:32:23.008436,-1,-2,-1,-3,3,11,-16,12
16:32:23.015431,-4,1,-1,1,-2,0,-14,-6
16:32:23.031423,-5,-4,-3,2,4,17,5,-8
16:32:23.039417,-8,-2,-2,-1,-1,-7,6,-3
16:32:23.054407,-2,1,-1,-1,-1,1,4,-3
16:32:23.054407,-2,-1,1,2,4,-4,-2,-10
16:32:23.083390,-9,-3,-3,0,0,9,72,-15
16:32:23.085389,-2,1,0,-3,0,1,7,6
16:32:23.092384,7,2,3,1,0,-2,-26,2
16:32:23.098380,-4,1,-3,1,2,6,15,-1
16:32:23.113372,3,3,2,2,2,-1,22,19
16:32:23.114371,2,1,2,-2,0,-6,-2,3
16:32:23.128362,2,2,1,-1,-1,0,0,1
16:32:23.143353,-7,-3,-3,-1,0,-2,-3,0
16:32:23.158343,2,0,1,-2,-3,-4,7,0
16:32:23.159344,-4,-2,-3,-5,-1,-7,-6,-6
16:32:23.183331,6,0,-1,-2,1,-1,1,5
16:32:23.183331,-2,0,-1,-2,0,1,-41,4
16:32:23.188325,-3,-2,-2,1,-2,2,5,0
16:32:23.195322,-5,-4,-3,-3,0,-3,-1,-4
16:32:23.210311,0,0,1,1,7,-8,-23,-2
16:32:23.218314,2,1,-2,-2,0,6,11,10
16:32:23.233297,-1,1,-2,0,0,6,-1,-5
16:32:23.233297,-1,-2,-1,1,-5,-18,-29,-8
16:32:23.248288,4,2,2,2,1,3,-17,7
16:32:23.255284,1,1,-1,-5,-5,-14,-23,16
16:32:23.270274,-2,0,1,-3,0,-1,7,0
16:32:23.278270,-4,-1,0,-3,1,0,4,-9
16:32:23.293264,19,-1,0,2,6,23,19,22
16:32:23.293264,-5,-3,1,2,2,-6,0,-7
16:32:23.308251,-7,-1,-1,-1,-5,-6,-8,-8
16:32:23.316246,1,0,0,-5,0,18,16,4
16:32:23.331243,-3,1,0,2,0,-1,2,1
16:32:23.338233,-3,0,-2,2,0,-8,-4,-6
16:32:23.353224,-2,-1,-4,-3,-4,-3,-34,4
16:32:23.354223,-3,0,-2,-3,-3,-1,10,-10
16:32:23.368214,1,-1,1,0,-1,-3,2,-3
16:32:23.375213,-4,0,-4,0,-2,-7,-1,-10
16:32:23.391200,1,0,-1,1,0,7,12,-4
16:32:23.398196,-1,1,0,0,-1,0,-7,-1
16:32:23.413187,4,-2,-4,0,-5,0,9,13
16:32:23.414186,0,2,1,-3,-4,-10,-26,-3
16:32:23.428177,-3,-1,-1,-1,2,12,18,-3
16:32:23.436173,-4,0,0,-3,-5,0,15,-15
16:32:23.451163,-3,-1,-3,-2,-8,-3,1,4
16:32:23.458159,-3,-1,-1,-4,-2,-2,1,-10
16:32:23.473150,-1,0,0,-1,-1,-1,1,-3
16:32:23.473150,-2,-3,-4,-1,-1,-1,13,-1
16:32:23.488140,-4,-1,2,1,-3,-2,-7,-5
16:32:23.496135,10,0,-1,-3,1,-1,12,23
16:32:23.511126,3,0,-1,0,-1,4,5,5
16:32:23.518122,8,1,-1,-1,5,5,-6,12
16:32:23.533114,3,4,1,1,-4,-1,-7,1
16:32:23.534113,0,-2,-3,0,3,-9,-33,-4
16:32:23.548103,1,1,-3,2,-1,1,18,6
16:32:23.556099,0,0,-1,0,1,-1,4,-5
16:32:23.571090,-1,0,-2,0,0,3,-7,0
16:32:23.579085,-2,-6,-1,0,-1,3,0,-4
16:32:23.593077,-1,-1,-1,-1,0,2,-1,-2
16:32:23.593077,-5,2,-1,1,-4,-5,-4,-4
16:32:23.608066,-7,-6,-5,-2,-6,-2,-5,-2
16:32:23.616062,2,-2,-1,0,-1,14,22,6
16:32:23.631053,-1,1,-1,0,-4,-6,-19,-5
16:32:23.638064,-3,-3,-5,-1,2,0,5,-5
16:32:23.653039,-1,0,-1,0,-1,5,14,1
16:32:23.654039,15,-1,-2,-2,1,0,13,30
16:32:23.668070,-5,-2,0,-4,-4,0,-7,-8
16:32:23.676026,-2,-2,-3,-3,-2,-4,-12,-1
16:32:23.691017,-3,0,0,2,-1,-3,3,-4
16:32:23.698011,-1,4,0,-1,-2,0,8,1
16:32:23.713003,-3,-1,-1,-1,3,14,30,-6
16:32:23.720998,-5,-1,0,0,0,-4,-19,-7
16:32:23.728006,0,0,-1,-1,-1,-4,22,1
16:32:23.735989,2,1,-1,-1,1,9,4,5
16:32:23.757974,-5,2,2,2,2,2,-5,-12
16:32:23.758974,-1,4,-2,-1,3,10,6,2
16:32:23.772968,2,1,-1,0,-3,-4,4,12
16:32:23.780962,-3,-2,1,1,-3,-3,-6,-3
16:32:23.787961,3,-2,1,-1,0,1,5,-5
16:32:23.795952,-1,2,0,-3,1,-12,-42,5
16:32:23.810941,-2,0,-2,3,-4,0,-3,-5
16:32:23.817940,-1,0,-1,0,-1,2,6,1
16:32:23.832931,-3,-1,-2,2,-2,4,5,-6
16:32:23.840924,-3,-2,-1,-4,1,0,-5,-6
16:32:23.855914,-3,-2,-3,0,-1,-1,-1,-1
16:32:23.855914,-2,0,-3,0,-2,5,27,17
16:32:23.870906,-2,-1,-3,0,3,4,5,-7
16:32:23.877901,-3,-4,-1,-1,-1,-3,-10,-14
16:32:23.900887,1,2,-1,2,3,9,-7,9
16:32:23.900887,0,0,1,2,0,8,-3,-7
16:32:23.915879,-5,-2,0,1,3,-5,-1,-7
16:32:23.915879,1,2,-2,1,6,18,22,13
16:32:23.930868,-1,1,2,2,0,-5,-6,-3
16:32:23.937867,1,-2,-8,-3,-1,-1,11,-4
16:32:23.952858,-4,-1,-1,0,-1,-1,-23,-5
16:32:23.960850,1,-1,2,0,2,2,12,6
16:32:23.975841,-2,2,0,3,0,-13,-2,-8
16:32:23.975841,5,0,3,1,2,6,8,10
16:32:23.990833,-8,-1,-3,-1,-2,3,45,-8
16:32:23.997829,2,-1,-3,-1,-2,-6,3,5
16:32:24.012820,-2,-2,0,0,-2,0,11,0
16:32:24.020813,0,1,-4,-1,4,-1,-4,2
16:32:24.035803,9,-2,-3,-2,-6,-18,3,7
16:32:24.035803,-1,-1,0,0,0,3,-7,-3
16:32:24.050795,-6,-4,-5,-5,-3,7,-5,-11
16:32:24.065785,-2,-1,-1,-1,0,-3,-26,4
16:32:24.072783,-2,-2,-4,-2,3,13,0,-10
16:32:24.080787,-3,0,-1,-1,-1,-3,1,-5
16:32:24.102765,1,-1,-1,-3,0,1,18,8
16:32:24.103773,8,2,0,-1,1,8,8,22
16:32:24.110758,4,0,-1,0,4,4,18,1
16:32:24.118752,7,2,-1,1,1,9,2,3
16:32:24.132746,4,1,3,-1,-2,-1,-8,-11
16:32:24.140739,-8,-1,-4,-2,-3,-2,10,3
16:32:24.162728,3,5,3,5,6,24,21,28
16:32:24.163725,-5,-1,-3,-2,1,-1,-7,-17
16:32:24.170721,-4,1,-3,-1,-1,-4,2,-6
16:32:24.177716,-3,0,1,0,1,6,-2,-3
16:32:24.192710,-2,-2,0,-1,3,-5,0,-2
16:32:24.200701,-4,-1,-2,1,-1,-6,9,7
16:32:24.215692,7,-1,2,0,-5,-9,-1,10
16:32:24.216692,-5,2,1,-1,-1,2,3,-6
16:32:24.230683,-6,-3,-3,0,-4,-20,-66,-14
16:32:24.246677,-4,-1,-1,0,-2,0,5,-6
16:32:24.253673,4,-1,2,-1,-3,-1,8,8
16:32:24.260665,3,-2,0,1,1,5,13,13
16:32:24.283654,-4,-2,-1,0,-1,-2,-2,-1
16:32:24.284652,-1,1,-4,-1,-4,-6,-8,5
16:32:24.290647,-4,-3,-2,-3,-3,-1,-2,-1
16:32:24.298645,-1,0,-1,2,2,5,-25,-2
16:32:24.313636,-3,-1,1,1,-3,-1,-1,-14
16:32:24.320629,-3,-5,-7,-6,-5,-5,1,9
16:32:24.343617,3,1,2,0,2,19,22,6
16:32:24.343617,2,2,2,-4,0,-10,-10,0
16:32:24.350610,-3,-3,-2,-1,-3,-3,-5,0
16:32:24.358608,-1,-3,1,-1,-1,1,7,0
16:32:24.373599,-4,-3,-2,-1,-1,-11,-19,-12
16:32:24.380592,11,2,-1,0,1,1,-3,11
16:32:24.403580,-7,1,1,-1,-2,1,1,-10
16:32:24.404579,-8,-2,-2,-3,-1,-6,-6,-6
16:32:24.418571,-2,-1,0,-1,2,8,-7,2
16:32:24.419568,-1,1,-2,0,2,7,0,7
16:32:24.433561,4,0,-2,-2,-1,9,6,7
16:32:24.448553,-3,-4,-2,-1,-1,-1,14,-9
16:32:24.455546,-3,2,2,0,1,11,6,-6
16:32:24.456545,15,0,-3,-1,3,1,9,13
16:32:24.471539,-1,0,1,0,1,0,1,-6
16:32:24.478531,2,-2,1,0,4,6,2,0
16:32:24.493525,0,0,2,-1,-1,4,0,2
16:32:24.501517,-2,2,-3,0,3,2,-1,-1
16:32:24.516510,-1,-2,0,-1,-2,-1,4,7
16:32:24.516510,1,-2,-1,-3,-1,-3,-11,12
16:32:24.531500,5,1,-1,1,-3,-6,8,12
16:32:24.538497,9,1,1,-2,5,26,47,20
16:32:24.553488,11,3,4,4,5,10,21,17
16:32:24.560484,-3,0,0,0,-5,-5,1,2
16:32:24.575472,-6,-4,0,-2,-4,-4,-6,-11
16:32:24.576472,2,-1,-1,-6,1,9,2,16
16:32:24.591462,-1,0,-1,1,-3,2,9,0
16:32:24.598461,-3,-1,3,-3,2,-2,-2,-4
16:32:24.613451,5,2,3,-1,0,0,3,18
16:32:24.621446,-3,-2,-4,0,-2,3,-5,-3
16:32:24.636434,3,1,-1,-2,2,5,-28,14
16:32:24.643433,-1,-2,2,3,1,11,21,3
16:32:24.651425,-4,1,0,-3,-4,-2,-3,-11
16:32:24.666419,-3,0,2,2,2,7,3,-6
16:32:24.673414,-2,-5,-2,-3,-4,-6,-3,-6
16:32:24.681406,-5,-1,1,-1,-5,-6,-6,-4
16:32:24.696397,-5,-2,2,-2,-3,0,-2,-11
16:32:24.703396,3,1,-1,1,0,0,7,6
16:32:24.711388,-3,-6,-2,0,-1,-5,10,-12
16:32:24.718387,-4,-1,1,0,2,1,-8,-4
16:32:24.733376,-4,-1,0,-2,-5,-3,6,-3
16:32:24.740394,2,-1,-3,-2,-2,-3,18,1
16:32:24.756360,3,-1,1,-3,-4,-11,-13,10
16:32:24.763359,-3,1,-1,-3,1,3,6,6
16:32:24.778347,-3,-1,-1,0,3,-5,-1,-9
16:32:24.779347,-1,-3,1,-3,-2,2,8,-8
16:32:24.793340,1,-1,1,0,0,-3,-14,-1
16:32:24.801335,-4,1,0,1,1,0,8,0
16:32:24.816324,-1,1,-3,-2,-1,-5,-6,-7
16:32:24.823322,-1,-2,-1,-1,1,16,39,7
16:32:24.838313,3,5,1,5,2,3,3,5
16:32:24.839312,-5,1,-1,-3,-4,-4,-14,-14
16:32:24.853303,1,2,-2,-2,-3,-2,13,2
16:32:24.861296,-3,0,3,0,-3,-4,5,2
16:32:24.876289,-2,-2,0,-1,-2,-3,-3,-5
16:32:24.883284,-5,0,2,1,6,-1,-1,-3
16:32:24.898276,1,1,-2,0,1,2,1,-2
16:32:24.899275,0,2,-1,-1,0,-2,0,2
16:32:24.913265,-1,-3,-1,0,-2,0,-8,-5
16:32:24.921262,-8,-3,-1,-2,-2,-3,35,-3
16:32:24.936252,-2,1,-3,-2,-5,-3,-9,-4
16:32:24.943248,13,1,-1,1,2,6,23,28
16:32:24.958239,-8,-4,-6,-4,-7,-13,-14,-31
16:32:24.959238,0,4,3,-3,-1,5,-1,-4
16:32:24.973229,-2,1,3,-1,2,10,8,1
16:32:24.981224,-2,-1,1,-1,1,0,-8,-4
16:32:25.003211,-1,0,-1,0,0,-2,3,-2
16:32:25.004208,-6,-2,-1,-1,2,0,56,-5
16:32:25.018202,13,4,1,-1,2,7,3,21
16:32:25.019200,-8,-1,-3,-1,1,5,6,-3
16:32:25.033193,15,3,2,-2,-2,2,15,31
16:32:25.041188,1,0,-1,1,1,6,6,6
16:32:25.056179,-10,-5,-2,-1,0,-5,-12,-11
16:32:25.063172,2,1,-1,0,-1,-1,-6,15
16:32:25.078165,-3,-3,-2,-4,1,-1,8,-3
16:32:25.079161,4,-1,0,-2,-1,6,20,2
16:32:25.093153,2,0,0,-1,3,1,9,5
16:32:25.108144,5,6,2,2,1,7,14,11
16:32:25.116142,-4,0,-3,-1,-1,-4,-3,-2
16:32:25.123135,1,-1,-2,-4,-4,3,-7,10
16:32:25.138127,-6,-7,-2,0,-4,-3,-7,-9
16:32:25.139127,-1,-1,-1,1,3,-8,-17,-2
16:32:25.153118,-1,-1,-1,-1,0,-3,-6,-6
16:32:25.161114,-4,-1,-1,-2,-1,-3,-2,-7
16:32:25.176105,0,0,2,0,2,-1,-28,17
16:32:25.183098,-2,-3,-1,-1,0,2,3,-1
16:32:25.198088,-1,1,-2,-2,-2,-3,7,2
16:32:25.206086,2,0,0,-2,1,1,7,5
16:32:25.214078,-1,-1,-5,-2,-3,-6,3,5
16:32:25.221078,-1,1,0,2,1,-1,-4,1
16:32:25.236068,1,-2,-4,-3,-2,0,-11,6
16:32:25.243064,7,-1,-1,-2,-4,4,17,15
16:32:25.258052,-2,-1,-1,1,-1,-1,-5,-9
16:32:25.259052,-2,2,0,-2,0,-2,-12,-3
16:32:25.274043,-3,-1,-1,2,-1,9,-19,-7
16:32:25.281037,-3,-5,1,3,-1,-3,9,-3
16:32:25.296031,-4,-1,0,-3,-1,-6,-8,-10
16:32:25.311022,-3,-1,-4,-1,0,-3,-7,-7
16:32:25.318015,-1,1,1,2,1,5,1,-3
16:32:25.319016,-1,-3,-3,0,-2,-4,-1,-7
16:32:25.341004,2,-1,-4,-3,-5,-7,-9,-1
16:32:25.342002,1,3,-3,2,-1,2,1,10
16:32:25.355994,0,-2,-2,2,-1,-6,22,7
16:32:25.363988,3,3,-2,-1,2,-2,9,9
16:32:25.378977,0,-3,-1,-1,1,-1,1,-1
16:32:25.378977,-9,0,0,-1,0,0,-8,-6
16:32:25.393970,1,0,-2,-2,-2,9,13,10
16:32:25.400966,-1,-3,0,-3,-1,2,3,4
16:32:25.415958,-1,-1,-2,0,-3,-9,-5,11
16:32:25.423951,0,-1,-1,2,2,6,-8,-3
16:32:25.445939,0,-1,-1,1,-1,-1,-1,4
16:32:25.446935,7,0,2,3,1,7,11,11
16:32:25.453932,-2,-1,-3,-3,-4,-6,-1,-9
16:32:25.460929,0,0,-4,0,-3,-4,-7,2
16:32:25.475920,1,-6,-1,-2,-2,-6,-1,-4
16:32:25.483913,-2,1,0,-1,1,1,3,0
16:32:25.498904,-6,-2,0,1,-3,-9,-6,-14
16:32:25.505902,1,-1,-4,-1,4,11,4,5
16:32:25.513897,2,2,-1,-2,0,-2,2,4
16:32:25.520893,-8,-3,-3,-5,-2,-6,-2,-5
16:32:25.543876,2,1,0,-3,-1,3,-11,-3
16:32:25.543876,-6,0,0,-1,0,-3,-25,2
16:32:25.558867,2,0,2,-2,-1,2,21,4
16:32:25.558867,-4,-3,-5,1,-5,-8,-6,-6
16:32:25.580856,-1,-1,-1,-4,-2,-5,-1,-7
16:32:25.581852,-1,1,-2,0,2,-4,-14,-2
16:32:25.595846,1,-2,2,1,-1,-5,-2,2
16:32:25.603842,0,0,-2,0,-2,-3,1,4
16:32:25.618832,-2,-1,-1,-4,-4,-4,-14,-4
16:32:25.625828,-6,-4,-3,1,2,9,50,-7
16:32:25.633823,-1,-2,-1,1,0,2,-12,1
16:32:25.640819,-5,-4,1,1,2,1,3,-11
16:32:25.655809,-7,-3,-1,-1,0,-10,-6,-9
16:32:25.663806,-1,-3,-3,-2,-4,-3,-12,3
16:32:25.678793,-5,-3,0,2,3,-1,-3,-14
16:32:25.685791,2,0,-1,0,-2,2,2,5
16:32:25.700782,1,0,0,2,-1,-1,16,8
16:32:25.701781,-1,-1,0,0,1,1,-2,-7
16:32:25.723768,1,-3,-4,-5,-5,-2,39,-3
16:32:25.723768,-1,2,1,0,1,4,-4,-4
16:32:25.738758,-6,0,-3,-1,-6,-4,-2,-13
16:32:25.745752,-1,-2,-3,-3,-1,-5,-1,7
16:32:25.760744,-2,-1,0,1,-1,0,-4,-1
16:32:25.761742,5,-2,-5,-3,1,-3,-5,-12
16:32:25.775734,4,2,4,3,5,0,0,2
16:32:25.783731,0,1,2,0,3,2,5,5
16:32:25.798722,-1,0,-1,0,4,16,23,1
16:32:25.805715,13,2,1,-1,3,1,-15,11
16:32:25.820705,-5,1,-1,-1,-2,-4,-5,-4
16:32:25.821707,6,3,1,0,-1,3,4,9
16:32:25.835695,2,1,0,2,0,7,8,3
16:32:25.843694,-4,-3,0,0,-1,-10,-15,-8
16:32:25.858685,-1,-1,-3,-2,-6,-4,-5,5
16:32:25.866676,-1,-2,-1,-3,-1,-5,-7,-9
16:32:25.880669,1,-3,-2,-1,-1,0,10,-1
16:32:25.881668,-1,-1,2,3,-4,-7,-8,-5
16:32:25.896658,-5,-1,2,1,-1,-7,-32,-11
16:32:25.903657,-1,-2,0,1,0,11,18,2
16:32:25.918648,-9,-1,-4,-2,-1,2,-15,-11
16:32:25.925643,9,1,0,3,3,11,13,9
16:32:25.948627,0,0,-1,-3,-1,-5,-11,-9
16:32:25.949629,2,2,-2,0,1,-1,-7,0
16:32:25.963620,3,0,0,-2,0,2,1,10
16:32:25.964619,4,0,-1,0,-2,0,5,9
16:32:25.978608,-4,-2,1,1,0,-3,-7,-10
16:32:25.985606,-4,-2,-1,-3,-1,2,36,-3
16:32:26.008592,-1,3,1,-1,-6,-13,-21,-7
16:32:26.009592,1,1,-4,-1,2,0,-12,0
16:32:26.016588,-4,1,-1,-3,-1,-1,1,-6
16:32:26.023583,-3,0,-2,-1,0,0,1,0
16:32:26.038574,-5,-3,-2,-3,0,0,-4,-7
16:32:26.046566,0,-2,-3,-2,0,5,5,10
16:32:26.068556,-5,-4,-3,0,-1,0,-15,-14
16:32:26.069553,2,2,2,0,-5,4,23,19
16:32:26.075561,-1,-2,0,-1,-1,11,10,-4
16:32:26.083546,-6,0,-1,-3,0,-7,-16,-2
16:32:26.106529,-2,-4,-3,-1,2,0,6,-3
16:32:26.106529,0,-3,0,-2,-5,0,-3,-5
16:32:26.121522,2,1,-2,0,1,8,2,2
16:32:26.121522,-1,-2,0,-2,0,-3,1,-13
16:32:26.136513,10,4,2,3,2,6,7,8
16:32:26.143509,2,0,0,0,-3,-3,3,15
16:32:26.158500,-3,-4,-2,-4,-3,-5,-7,-3
16:32:26.173491,-5,-3,-1,0,1,4,1,-5
16:32:26.181485,4,1,1,4,-3,-2,3,0
16:32:26.181485,0,-2,1,-1,-1,1,24,-2
16:32:26.196474,2,0,-1,-2,2,-2,6,7
16:32:26.203472,-5,1,-3,-2,-2,-4,-5,-6
16:32:26.226455,10,0,0,-1,-3,-6,6,9
16:32:26.226455,-4,0,-1,1,-4,-7,-21,-9
16:32:26.248445,-4,-3,-5,-1,1,3,0,2
16:32:26.249444,-3,-3,-1,-1,-6,1,-3,-3
16:32:26.256436,1,-2,2,-3,-1,-9,-8,-7
16:32:26.263436,3,2,-1,-4,-4,-13,-28,-4
16:32:26.278423,-4,-2,-2,3,-1,-1,-9,-5
16:32:26.286418,-2,-3,-1,-4,-1,0,6,9
16:32:26.301414,-3,-4,0,-6,-2,3,-10,-9
16:32:26.301414,-1,-4,-2,-2,-2,3,2,-4
16:32:26.323399,0,2,0,1,-2,2,17,9
16:32:26.324395,-2,-2,1,-1,1,-2,-8,-10
16:32:26.338386,1,4,1,1,1,3,4,1
16:32:26.346384,-1,-2,0,-1,0,-2,-3,3
16:32:26.361372,-4,-3,0,-3,-1,-10,-35,-3
16:32:26.361372,-1,-2,0,-4,0,-7,-10,1
16:32:26.383364,2,-2,-3,-3,1,2,15,5
16:32:26.384359,6,-2,2,1,2,-3,-2,10
16:32:26.398349,-2,5,3,2,4,20,22,-3
16:32:26.406344,-3,0,-2,-1,1,2,7,3
16:32:26.421336,-3,1,-3,0,1,5,-9,-13
16:32:26.421336,-4,-5,-4,-3,-1,0,22,-3
16:32:26.436326,-4,2,-2,-3,-3,-6,-17,-3
16:32:26.443323,-4,-3,-1,1,-2,-5,1,-8
16:32:26.458315,0,0,2,1,4,17,19,3
16:32:26.466311,-4,-4,-1,-1,1,-2,2,-14
16:32:26.481299,-6,-4,-1,-1,0,-6,-4,-4
16:32:26.481299,-4,-4,-3,-1,0,2,9,-5
16:32:26.496289,6,2,-1,0,3,8,13,15
16:32:26.503284,-3,-1,-1,-1,-1,3,-2,-1
16:32:26.518276,4,-2,0,0,-2,-2,2,4
16:32:26.533267,1,1,0,3,4,3,-22,14
16:32:26.541265,9,3,-4,-1,-3,3,9,0
16:32:26.549259,-4,-1,-5,0,-2,-1,-10,-1
16:32:26.556255,1,1,-1,-2,-2,-3,16,8
16:32:26.563249,1,-2,-1,-2,2,-3,-8,1
16:32:26.578239,-2,1,2,-2,1,-2,-2,-3
16:32:26.586237,0,-4,-2,-1,-5,6,5,11
16:32:26.601228,3,0,0,-2,0,-10,-22,6
16:32:26.616218,-3,-4,-1,0,4,4,-1,-1
16:32:26.617217,-4,-2,-1,-3,0,-9,-13,-10
16:32:26.623212,1,-1,1,0,0,-1,16,8
16:32:26.638202,-2,-2,-4,-3,-4,-14,-11,-14
16:32:26.646200,3,0,-1,-5,3,16,15,10
16:32:26.661191,3,-3,-1,-2,-3,3,6,5
16:32:26.669186,-4,-4,-4,-1,-2,-3,6,5
16:32:26.683177,-1,0,0,-1,-2,-6,1,-10
16:32:26.684173,3,-2,-7,-3,-2,0,1,10
16:32:26.706163,-3,-1,-2,-2,-3,-4,1,-1
16:32:26.707162,-2,0,-1,0,0,3,2,-2
16:32:26.721154,1,-2,0,-3,1,-2,4,-6
16:32:26.728149,0,-1,-2,-3,0,-3,1,4
16:32:26.743138,-3,1,-2,-1,-1,-5,-17,-1
16:32:26.744136,-5,-1,0,4,3,7,-6,-3
16:32:26.766126,-2,-4,-1,0,2,6,8,1
16:32:26.767125,-4,-1,0,-1,0,-9,-12,-10
16:32:26.781116,1,-2,-1,-4,-3,-6,33,27
16:32:26.788116,-4,-3,0,-1,2,-7,-12,-10
16:32:26.811098,-3,-2,0,2,-3,-11,-32,-4
16:32:26.811098,1,-5,-1,1,-1,3,8,-4
16:32:26.818094,2,0,-3,-1,-3,-4,-5,-1
16:32:26.826089,-6,2,-2,-1,0,6,3,-7
16:32:26.841080,0,3,1,3,3,4,-6,-4
16:32:26.849074,1,-2,-2,-2,-2,-8,2,2
16:32:26.864062,-1,-1,1,1,0,0,-10,-2
16:32:26.864062,-4,-2,0,0,-1,-10,-6,-12
16:32:26.879053,5,1,-2,0,0,13,-5,23
16:32:26.886049,-6,-3,1,-3,-2,-6,1,-7
16:32:26.901043,-6,-4,-4,-3,-4,-4,-6,-11
16:32:26.909038,8,4,0,-1,4,2,5,8
16:32:26.923028,-4,0,0,-1,-3,-3,-6,-8
16:32:26.924028,-2,-2,-3,-3,-4,-2,-9,-2
16:32:26.939018,-1,-2,-3,0,0,2,-5,-6
