timestamp,emg1,emg2,emg3,emg4,emg5,emg6,emg7,emg8
15:34:41.995571,-1,-2,-2,-3,-1,-2,-4,-1
15:34:42.004562,1,0,-3,-1,0,-3,-3,-6
15:34:42.004562,-3,-1,-3,2,-2,-3,0,-1
15:34:42.026549,-3,-3,-1,0,-2,-1,-1,-4
15:34:42.027547,2,2,1,-1,1,2,0,0
15:34:42.049533,-2,1,1,-1,2,-2,0,2
15:34:42.049533,-4,-1,0,-2,2,2,-2,-1
15:34:42.064524,1,0,0,2,-3,-3,0,-2
15:34:42.071520,1,0,-1,-2,-4,-3,0,-1
15:34:42.086510,-3,-3,-4,-1,0,-2,-3,-2
15:34:42.087509,0,2,1,4,3,2,0,-2
15:34:42.109497,-1,-3,-1,-4,0,-4,-2,2
15:34:42.109497,3,1,3,1,5,6,3,3
15:34:42.124487,0,-2,-2,-4,-4,-2,-1,1
15:34:42.131495,-3,-2,0,1,-3,-2,-2,1
15:34:42.146473,0,-2,-1,-1,-2,-1,0,-1
15:34:42.147473,0,-1,0,3,0,-1,1,-1
15:34:42.169460,0,-2,1,2,0,0,2,1
15:34:42.169460,-3,-3,-4,-3,1,2,-1,-5
15:34:42.184450,-1,1,0,-1,-1,0,1,1
15:34:42.192448,0,1,0,-2,-2,-1,-2,-1
15:34:42.206438,-2,0,-4,1,-1,-2,-2,0
15:34:42.207438,-3,-1,2,2,0,-3,0,-2
15:34:42.229422,-2,-2,-1,-3,-4,-4,-1,-2
15:34:42.230423,-2,-4,-2,-3,0,1,1,-3
15:34:42.244416,0,-1,-3,-1,-1,-5,-1,-3
15:34:42.252411,2,1,0,-1,0,-4,-1,1
15:34:42.266401,-2,1,-1,-3,-3,-2,0,0
15:34:42.267400,-2,1,1,2,3,-1,2,3
15:34:42.289386,-2,0,-2,-1,0,2,-1,1
15:34:42.290384,0,0,1,-4,-2,-3,0,1
15:34:42.304379,0,-2,-1,-1,-1,-1,-1,0
15:34:42.312370,-2,-1,-3,-1,-1,-6,-1,-1
15:34:42.326363,-4,-1,1,-1,-4,-1,0,-1
15:34:42.327363,-1,-1,-1,-3,-1,1,-3,-1
15:34:42.349351,-5,0,0,4,-2,2,0,-1
15:34:42.350352,-3,0,-4,1,0,-3,2,0
15:34:42.364341,0,-1,-4,0,-2,-1,-2,-1
15:34:42.372337,0,1,-1,-1,-1,-2,-3,1
15:34:42.387327,-3,-1,-1,-3,-3,0,-2,-2
15:34:42.387327,0,0,0,-1,3,5,1,4
15:34:42.409314,-2,-1,-1,-1,0,1,-1,-1
15:34:42.410313,0,2,3,2,0,-1,4,1
15:34:42.424302,2,0,1,1,-1,-3,0,3
15:34:42.432297,0,0,-1,-1,-2,0,-5,-1
15:34:42.447287,-2,-4,-2,-3,-3,-1,1,0
15:34:42.447287,-2,0,1,1,-2,-1,-2,-1
15:34:42.469273,-4,-1,-1,-1,-4,0,-1,-1
15:34:42.470273,-1,-2,1,-2,-2,-1,-1,2
15:34:42.484264,-2,2,0,-2,-4,-3,0,-1
15:34:42.492259,-1,-4,-2,-1,1,-1,1,-1
15:34:42.507250,-2,-4,-2,-1,4,5,0,2
15:34:42.507250,1,-1,-1,-1,-1,0,-5,0
15:34:42.529236,1,-2,0,-1,0,-3,-1,-3
15:34:42.530236,3,-1,0,1,3,4,0,0
15:34:42.544230,-4,-4,0,0,0,-2,0,0
15:34:42.552222,-2,-3,-2,-2,0,2,-4,-2
15:34:42.567213,0,-1,-1,-3,-5,-3,-1,-3
15:34:42.567213,-1,1,-1,-2,-1,2,0,0
15:34:42.589199,0,-1,1,1,4,-1,2,-2
15:34:42.590201,-5,0,-1,-1,0,2,3,-3
15:34:42.612185,-1,-2,-3,0,-2,-3,-1,2
15:34:42.612185,-1,0,-2,-1,1,0,0,-4
15:34:42.627176,-3,-1,-3,-1,-1,1,0,0
15:34:42.627176,-2,-2,-4,0,1,2,0,1
15:34:42.649163,1,1,2,2,1,-2,1,1
15:34:42.650161,-2,-2,-1,0,-4,-1,0,-2
15:34:42.664155,0,-2,-1,-2,-2,0,-3,-3
15:34:42.672148,1,0,0,-2,-2,-2,-1,1
15:34:42.687138,-1,2,3,1,2,-3,1,1
15:34:42.687138,0,-1,-2,2,0,-1,0,-2
15:34:42.709125,-1,-1,2,-3,-9,-5,-3,-3
15:34:42.710127,-5,-3,-2,-4,-3,1,-4,-1
15:34:42.732114,0,-2,-2,0,-2,-4,0,-1
15:34:42.732114,-1,1,1,-3,0,-3,0,0
15:34:42.747101,1,-1,1,-1,-2,-1,-1,-4
15:34:42.748105,2,-1,2,3,3,0,1,0
15:34:42.769090,-2,-1,-2,1,-1,-1,0,0
15:34:42.770089,1,-1,-1,1,2,1,1,2
15:34:42.792075,-1,-1,0,1,0,-3,-1,-1
15:34:42.792075,0,-1,0,-3,-3,1,0,0
15:34:42.814062,0,-1,-4,-3,0,-3,-1,-4
15:34:42.815059,-3,-4,-2,-2,-1,-2,0,-1
15:34:42.829051,-1,2,0,-1,0,-4,2,1
15:34:42.830050,-2,1,-3,1,-3,1,1,0
15:34:42.852039,1,-2,0,-4,-8,-5,-2,-3
15:34:42.852039,-1,0,0,-2,-8,-2,0,2
15:34:42.867027,1,0,-1,-1,-2,2,1,-2
15:34:42.874022,-1,0,2,-2,-1,-1,0,0
15:34:42.889014,0,-1,-2,-4,2,-2,-1,-1
15:34:42.890012,-4,0,0,-2,-3,-1,-1,0
15:34:42.911999,-3,0,-1,0,-1,-2,-2,-2
15:34:42.913001,-4,-1,-1,-2,0,0,0,0
15:34:42.926989,-2,-3,-2,-4,-1,-2,2,-4
15:34:42.926989,-3,3,-4,0,0,-2,-2,0
15:34:42.948975,0,2,-1,0,-1,-4,-1,-3
15:34:42.949975,0,1,2,0,4,1,1,0
15:34:42.971962,-1,1,-1,-3,-3,-1,-1,-3
15:34:42.972964,-1,-2,-1,-3,0,2,0,-2
15:34:42.986955,-1,1,-1,-1,-1,-3,0,-2
15:34:42.994949,0,0,-1,-1,-6,1,-2,-4
15:34:43.009938,0,2,0,-1,-2,1,-1,4
15:34:43.009938,-4,-1,-1,-2,-3,-1,-1,-1
15:34:43.031928,2,-1,0,-4,-3,0,-1,-1
15:34:43.032927,-2,-1,-2,0,-1,-3,1,-2
15:34:43.046915,0,0,-3,-1,-3,-1,-2,-2
15:34:43.061906,0,-1,1,-2,1,1,1,-1
15:34:43.068902,-1,-1,-1,-4,-3,3,0,-3
15:34:43.069901,-2,0,1,1,3,-2,-4,-2
15:34:43.091890,-1,-2,-2,0,-1,4,1,0
15:34:43.092889,4,-3,-2,-2,-3,0,-3,-5
15:34:43.106881,-2,-2,1,0,4,0,4,1
15:34:43.114883,-3,-3,-2,-3,0,-3,-1,-3
15:34:43.129863,-1,-3,-3,1,-5,-1,-4,-2
15:34:43.129863,1,-3,2,-4,1,1,-3,0
15:34:43.151850,-1,1,0,-1,1,0,0,0
15:34:43.152852,0,0,-1,0,-1,1,0,-1
15:34:43.166844,1,-3,-4,-2,0,0,1,-1
15:34:43.174836,-3,-2,2,-2,0,-2,-2,-1
15:34:43.188826,-2,0,-1,-3,-1,-3,-2,-4
15:34:43.189827,0,-1,0,-2,-4,-2,-1,1
15:34:43.211813,-4,-1,0,-2,-3,-2,-6,-2
15:34:43.212815,-2,-4,2,-1,1,1,-2,-3
15:34:43.226806,1,-1,0,1,-1,-5,-1,-2
15:34:43.234802,-3,1,-1,-3,-4,0,-4,0
15:34:43.249793,-3,-1,-2,-2,-1,0,-1,-2
15:34:43.256787,0,1,-2,-2,-2,-1,-4,0
15:34:43.271779,-1,-2,1,-1,-3,-4,-1,2
15:34:43.272778,0,3,0,2,1,-1,2,0
15:34:43.286768,-5,0,-2,-1,2,1,1,-1
15:34:43.294761,0,1,0,-1,-4,0,-2,-3
15:34:43.309752,-2,-4,2,-5,-2,2,-2,-1
15:34:43.309752,-4,-4,-2,0,-2,0,0,-2
15:34:43.331741,1,-3,-1,-2,-2,-2,-3,-2
15:34:43.332740,-1,0,1,1,-1,-2,5,-1
15:34:43.346731,-2,-1,-6,-3,-3,-1,-1,1
15:34:43.354727,1,0,1,1,0,-2,-1,2
15:34:43.369714,-2,-4,-2,-4,-3,-2,-3,-2
15:34:43.369714,0,1,-1,0,-3,2,1,1
15:34:43.391701,-1,2,-1,1,2,-3,-1,-1
15:34:43.392703,-1,-1,-1,-2,-4,-3,-2,0
15:34:43.406693,-3,1,-3,-4,-4,-2,-1,0
15:34:43.414690,-1,-2,1,-2,-3,-3,-2,3
15:34:43.436673,0,-6,-5,-2,1,-1,-1,-3
15:34:43.437672,-1,-2,-3,-4,1,-1,-4,0
15:34:43.451664,-1,-1,-1,0,2,-3,-2,-2
15:34:43.452664,2,-1,0,-1,0,1,-2,1
15:34:43.474650,-1,-2,-5,-4,-2,-2,1,-4
15:34:43.474650,-1,1,0,0,0,1,-2,0
15:34:43.489640,-1,0,0,-1,4,-3,1,2
15:34:43.489640,0,1,-3,-1,0,-1,0,1
15:34:43.511627,-2,3,-4,-1,5,-2,-2,2
15:34:43.512626,-5,-3,-1,-3,-3,-1,-7,-6
15:34:43.526618,-1,-4,0,-2,0,5,0,-3
15:34:43.534616,-1,-1,-2,-3,-1,1,0,-1
15:34:43.549607,-4,-4,-4,-3,0,-2,-2,1
15:34:43.549607,0,-3,0,2,-4,1,1,-3
15:34:43.572589,0,0,1,0,-3,-1,-6,-2
15:34:43.572589,0,2,1,-1,0,-1,-1,-3
15:34:43.587580,2,1,1,-1,2,1,1,2
15:34:43.594577,-1,0,-1,0,2,-1,-1,-2
15:34:43.609572,0,-2,1,1,-4,-5,-2,1
15:34:43.609572,-3,-3,2,-4,-2,0,0,0
15:34:43.631555,1,-1,-1,1,-4,2,1,-4
15:34:43.632552,-2,-2,-4,-3,-2,-3,-3,-4
15:34:43.654538,-2,-3,-2,-1,-2,0,-3,-4
15:34:43.654538,1,2,0,8,4,4,-1,-1
15:34:43.669532,-2,-2,-3,-12,-11,-5,-3,1
15:34:43.669532,-4,0,-1,0,9,-2,1,-1
15:34:43.691517,-2,-1,-1,5,4,-2,-1,4
15:34:43.692517,-2,-2,-2,-6,-4,0,-1,-1
15:34:43.714501,3,-1,1,0,-3,-4,-5,3
15:34:43.715504,-1,-4,0,0,2,-3,0,0
15:34:43.729495,-3,0,-1,-5,-8,-6,-2,-2
15:34:43.730493,-4,2,-1,1,3,-4,-2,-2
15:34:43.751478,4,1,1,2,-4,-2,2,2
15:34:43.752480,-3,-1,-3,-2,-3,-3,-2,-3
15:34:43.774464,2,-1,2,4,11,3,1,2
15:34:43.774464,-4,-5,-5,-2,1,-1,-3,-3
15:34:43.789457,-2,-1,0,-2,-2,-1,-4,0
15:34:43.790457,-1,0,-2,-3,-1,1,0,-1
15:34:43.811441,-2,-3,0,1,2,-1,0,-2
15:34:43.812441,-1,-1,-1,-3,-7,0,0,-1
15:34:43.841422,0,1,0,1,0,0,-1,-1
15:34:43.842421,0,-4,-2,-2,-2,-3,-3,-1
15:34:43.849418,0,0,-3,3,0,-1,-1,0
15:34:43.850419,-1,-1,0,-1,-4,1,-1,4
15:34:43.871404,-2,-2,-5,-2,-5,-2,-5,-2
15:34:43.872406,0,0,1,-2,3,-5,-3,-2
15:34:43.894392,-1,-1,-2,0,-7,-4,-5,-2
15:34:43.895389,-2,-1,-3,-1,-2,2,-1,-5
15:34:43.909380,-4,-2,-1,-1,1,-1,0,-1
15:34:43.910381,3,3,2,2,-4,-5,0,2
15:34:43.932368,1,-1,0,1,-4,-3,0,1
15:34:43.932368,-1,-1,-2,0,3,2,-4,-2
15:34:43.962349,2,0,2,-1,1,-2,-2,-1
15:34:43.962349,-1,-2,-4,-3,-8,1,-3,-5
15:34:43.969346,0,1,2,4,3,4,1,2
15:34:43.977340,1,0,-4,-10,-5,1,-1,-1
15:34:43.991331,0,0,13,16,1,1,0,3
15:34:43.992329,-1,-2,-14,-19,8,7,1,2
15:34:44.014315,-1,3,9,11,-10,-1,1,-4
15:34:44.015316,0,0,-27,-16,0,-3,-4,1
15:34:44.029309,-10,-9,0,0,-8,-5,-7,-8
15:34:44.037303,-2,1,-6,6,9,-1,-2,0
15:34:44.052292,0,-4,-10,-15,-1,0,-2,-2
15:34:44.052292,-1,-1,-13,-9,1,-5,-1,2
15:34:44.074278,-4,2,39,1,-64,-2,-6,-5
15:34:44.075277,3,0,-28,52,43,9,3,3
15:34:44.089269,0,-3,-1,-55,-77,-17,-5,-1
15:34:44.097267,-1,-1,-23,57,33,2,-4,-8
15:34:44.111257,2,2,-1,-60,-39,-2,1,1
15:34:44.112255,-2,8,16,96,98,2,-4,-1
15:34:44.134244,-2,-11,-21,79,-21,-8,-1,1
15:34:44.135243,-8,-20,-95,-128,-128,-2,-5,-6
15:34:44.149232,-4,13,127,127,127,13,-4,-7
15:34:44.157230,14,9,-13,-103,-43,-3,11,18
15:34:44.172218,-4,-27,-128,-14,68,-6,0,3
15:34:44.172218,-19,3,127,127,-10,-62,-22,-24
15:34:44.194206,-1,-7,-39,127,127,28,8,0
15:34:44.195205,46,58,-39,-123,127,72,30,30
15:34:44.209194,-74,-89,-64,-63,81,-65,-47,-54
15:34:44.217192,-5,-5,-16,-128,-128,-128,-13,-5
15:34:44.232181,4,4,-100,127,127,100,10,1
15:34:44.232181,-41,-21,127,111,18,-4,-24,-28
15:34:44.247170,43,38,-128,4,-128,2,20,30
15:34:44.247170,-69,-80,31,127,127,2,-31,-48
15:34:44.262164,90,91,-128,-128,-128,-2,50,70
15:34:44.269160,-128,-128,-18,96,127,-88,-84,-100
15:34:44.285150,98,127,127,127,-74,127,44,39
15:34:44.292146,-91,-128,-118,77,2,-103,-39,-31
15:34:44.307134,20,63,38,-98,45,38,16,1
15:34:44.307134,54,28,66,70,-128,-2,34,52
15:34:44.322127,-27,-25,-12,-25,115,2,-12,-21
15:34:44.329120,19,22,-12,-41,-63,6,5,8
15:34:44.344111,11,31,34,127,-97,6,1,2
15:34:44.352109,-32,-40,-30,-53,-32,-13,-7,-17
15:34:44.367099,20,43,-2,54,-36,2,3,4
15:34:44.367099,-2,-42,20,127,127,46,15,15
15:34:44.382089,72,127,30,-128,-80,-6,6,18
15:34:44.389085,-48,-87,-63,-38,-91,-27,-20,-24
15:34:44.405074,19,-14,120,127,127,54,20,24
15:34:44.412071,73,118,12,-128,106,-4,13,24
15:34:44.434057,-51,-64,-83,-5,-69,-83,-37,-31
15:34:44.435057,-21,-34,21,127,127,127,33,19
15:34:44.450048,-11,-44,-63,-42,19,-40,0,0
15:34:44.457044,-43,-51,-43,-8,-75,-10,-12,-14
15:34:44.465041,127,127,127,-128,22,-7,45,70
15:34:44.472034,-44,15,67,57,-128,65,-15,-40
15:34:44.487025,57,32,127,127,127,127,23,32
15:34:44.494018,-118,-128,-128,-128,127,-89,-27,-44
15:34:44.502016,52,119,-42,-128,-97,-43,1,14
15:34:44.509011,-24,-47,-15,-23,-126,-11,-5,-5
15:34:44.525001,-8,-27,15,127,127,56,7,2
15:34:44.531996,-67,-69,-35,112,-128,-45,-9,-30
15:34:44.539992,1,59,-10,-128,127,-69,-14,-11
15:34:44.554981,-19,-25,-13,-69,-128,26,6,-6
15:34:44.561978,69,73,69,127,127,-10,14,31
15:34:44.569974,-14,16,37,3,61,36,-3,-12
15:34:44.584964,32,96,41,-69,-128,-19,-1,5
15:34:44.591960,-5,4,12,68,7,-9,-1,-5
15:34:44.599954,-21,-78,-51,72,127,5,8,4
15:34:44.614946,-46,-68,-23,82,42,99,-14,-25
15:34:44.621941,-4,-6,-61,-63,-128,-90,-16,-2
15:34:44.629936,29,31,12,14,127,35,16,17
15:34:44.644925,-35,-42,-17,78,-64,1,-14,-20
15:34:44.651922,11,24,6,28,127,-25,2,7
15:34:44.659918,-22,-31,-15,-62,-57,33,-8,-11
15:34:44.674914,21,13,-8,83,127,4,6,10
15:34:44.681903,-6,-28,-13,-128,-128,-23,-7,-5
15:34:44.696894,-5,-7,-66,-128,-128,-70,-9,-5
15:34:44.704890,0,-17,-29,-29,127,-13,-1,2
15:34:44.711882,4,0,-7,-10,-128,-39,0,-3
15:34:44.719880,21,19,-4,127,127,2,8,12
15:34:44.734870,-6,-28,-18,126,-35,8,4,2
15:34:44.741867,-9,-11,-39,-128,7,-19,-8,-5
15:34:44.749863,5,3,-25,-66,127,1,-1,-1
15:34:44.764854,13,24,-4,-67,-42,0,4,7
15:34:44.771848,-6,-14,11,41,28,0,-2,-2
15:34:44.779843,-11,-17,-44,-29,63,4,-3,-4
15:34:44.794831,3,6,-12,-70,-128,-87,-4,-2
15:34:44.801830,-26,-43,-54,-81,-59,-16,-16,-13
15:34:44.809825,-9,-4,-10,-8,-54,-13,-4,-9
15:34:44.824815,-11,-5,-17,-94,-128,-55,-11,-6
15:34:44.831811,-59,-63,-30,4,30,14,-23,-32
15:34:44.839806,5,11,-11,-66,-87,-13,0,-1
15:34:44.854796,1,2,-23,-59,-80,-41,-4,4
15:34:44.861790,-36,-57,-39,-6,9,1,-9,-15
15:34:44.869787,-40,-64,-72,-80,-85,-46,-20,-17
15:34:44.884778,16,45,12,-128,-128,-14,1,4
15:34:44.891774,-5,-4,-28,-123,-128,-33,-4,-3
15:34:44.906762,1,-5,-65,-90,82,-4,2,0
15:34:44.914760,3,9,19,24,12,22,-9,-7
15:34:44.921755,3,5,-9,-40,28,9,2,1
15:34:44.929747,-13,-20,-4,82,20,20,-6,-3
15:34:44.944741,-4,1,-15,-111,-128,-11,-1,-2
15:34:44.951736,0,-1,16,42,83,13,-3,-2
15:34:44.959731,11,43,55,26,127,19,0,3
15:34:44.974722,-10,-15,-28,-54,-96,-15,-6,-9
15:34:44.981717,-8,-7,35,127,127,4,-3,-7
15:34:44.989716,5,-5,10,-3,81,26,5,4
15:34:45.004703,6,15,2,-60,-33,8,-2,-3
15:34:45.011698,-7,2,19,-30,-128,-17,-7,-6
15:34:45.019694,-7,-9,-5,65,88,32,1,-1
15:34:45.034685,14,29,16,-115,-128,-18,2,5
15:34:45.041680,-11,-17,-20,-6,-35,-33,-3,-6
15:34:45.049676,6,6,-4,-1,-7,7,4,4
15:34:45.064666,-14,2,26,37,32,15,-8,-12
15:34:45.071662,6,10,38,90,100,4,7,5
15:34:45.086652,8,25,4,-60,-54,23,3,5
15:34:45.094647,2,0,-8,-2,23,-13,2,3
15:34:45.109636,-6,-5,1,-8,7,33,0,-6
15:34:45.109636,3,3,-1,-21,-26,-6,0,3
15:34:45.124629,0,-5,-19,-101,-26,-6,0,-1
15:34:45.131624,-17,-14,29,79,71,13,-8,-13
15:34:45.147616,2,2,-8,-45,-14,-1,1,-3
15:34:45.154611,-1,-1,16,54,43,12,1,1
15:34:45.161606,10,14,23,60,66,21,6,9
15:34:45.169602,-2,-2,-5,-16,-14,-4,3,2
15:34:45.184592,4,6,24,127,35,-1,0,1
15:34:45.191585,-4,-5,-6,-18,-7,-3,-4,-3
15:34:45.207578,3,1,5,31,-8,-3,3,-1
15:34:45.214574,0,2,2,-2,0,-3,-7,3
15:34:45.222569,-3,-3,-7,-12,-8,-6,-1,-1
15:34:45.229565,-11,3,5,3,7,10,-11,5
15:34:45.244552,-5,1,-4,-4,-6,-8,7,-9
15:34:45.251548,0,9,8,10,13,12,28,12
15:34:45.267543,7,-12,-20,-19,-24,-15,-11,7
15:34:45.274536,47,0,18,19,31,71,17,112
15:34:45.282529,-39,-11,-6,-5,-27,-43,62,-93
15:34:45.289527,127,15,12,16,25,30,106,27
15:34:45.311511,19,-1,-15,-14,3,15,101,49
15:34:45.312510,-26,-4,12,11,-13,11,127,-76
15:34:45.327504,-53,-26,28,45,62,101,127,60
15:34:45.334499,51,-3,-22,-24,-27,-81,71,27
15:34:45.341495,75,3,15,15,38,127,-128,127
15:34:45.349489,-30,-21,-38,-39,-82,-97,68,-107
15:34:45.364480,-59,-1,19,18,8,-12,-49,-100
15:34:45.372473,-1,6,8,4,31,15,5,3
15:34:45.387467,-6,-10,-31,-104,-16,-2,-20,9
15:34:45.394462,6,5,19,120,67,2,-23,10
15:34:45.402454,-36,9,12,-5,-12,-11,-20,-8
15:34:45.424443,-26,-79,-23,-71,11,50,7,64
15:34:45.425442,19,36,49,127,127,-10,14,11
15:34:45.432438,2,0,14,-2,66,51,2,-11
15:34:45.447426,57,86,108,-24,123,28,4,43
15:34:45.454425,-67,-37,-9,38,-128,-67,-2,-2
15:34:45.462418,-20,38,53,-52,127,32,-1,-12
15:34:45.477410,8,17,-26,-12,-99,4,-40,-13
15:34:45.491400,-37,-19,17,104,-54,-19,102,-22
15:34:45.492398,91,-6,12,127,127,54,-26,46
15:34:45.507392,55,20,20,-26,127,34,27,-41
15:34:45.514388,38,8,-13,28,119,-54,-26,-3
15:34:45.529378,4,25,-2,-62,10,-18,7,-9
15:34:45.537374,20,-34,-27,-2,60,-13,12,47
15:34:45.551362,22,2,8,15,-9,9,-128,24
15:34:45.552361,127,10,0,93,127,24,-30,22
15:34:45.567355,-37,16,8,-38,7,-3,19,-22
15:34:45.574350,-9,-8,11,40,127,-24,-2,-46
15:34:45.589338,0,-3,-52,-128,-128,-38,-6,-7
15:34:45.597337,-9,-9,-12,114,-128,-31,-8,-5
15:34:45.612324,24,-18,2,-19,127,-12,-51,-52
15:34:45.612324,127,47,43,54,66,48,55,127
15:34:45.627314,-55,8,-8,70,-50,-31,-113,0
15:34:45.634313,-2,0,-44,31,23,36,34,13
15:34:45.649304,-10,-12,-28,-79,-101,-7,7,-14
15:34:45.657299,-10,0,-2,65,73,26,18,-6
15:34:45.679285,19,2,-13,-26,77,7,-8,6
15:34:45.680282,-128,4,54,127,126,-34,-7,-57
15:34:45.687280,-31,18,12,41,-86,-42,-12,-14
15:34:45.694276,-5,13,35,127,127,34,-15,-11
15:34:45.709266,16,21,35,10,103,28,42,26
15:34:45.717259,-7,-19,27,-29,-39,-15,-33,-4
15:34:45.732251,35,-9,-37,-128,-128,-18,-3,-4
15:34:45.732251,12,12,28,61,-18,-4,6,48
15:34:45.747241,28,21,66,61,127,75,36,18
15:34:45.754236,42,-7,-9,-18,127,-11,0,32
15:34:45.769227,1,5,-11,-128,78,39,31,15
15:34:45.777221,7,20,45,-16,-76,-19,-19,5
15:34:45.792216,-50,-25,-18,10,56,12,21,-47
15:34:45.792216,6,1,-19,-60,-101,13,-31,9
15:34:45.807203,-18,1,4,25,127,-27,-21,-38
15:34:45.814199,-16,-10,-25,37,127,-1,-33,-5
15:34:45.829189,-7,-1,9,-36,-42,-35,-21,-17
15:34:45.837187,15,13,-7,-7,60,26,24,25
15:34:45.852176,3,-19,-44,-113,-102,-29,-11,1
15:34:45.852176,-6,1,-8,-7,52,10,9,1
15:34:45.867169,-10,1,22,50,-101,-31,-11,-14
15:34:45.874161,4,6,10,48,-34,-11,-10,9
15:34:45.889155,-11,-12,9,9,-116,2,-3,-9
15:34:45.897148,-22,-6,-12,32,-100,7,-31,-11
15:34:45.912138,1,-2,-10,0,-60,-29,-13,-10
15:34:45.912138,6,2,-1,-62,58,9,9,12
15:34:45.927131,19,3,0,-27,-11,16,17,38
15:34:45.934126,7,-3,-22,0,-128,-14,-10,-5
15:34:45.950117,-16,-4,14,16,-69,-9,-9,-19
15:34:45.957118,-4,1,30,66,-19,10,7,2
15:34:45.972101,-5,11,3,127,127,-7,20,31
15:34:45.972101,15,10,15,102,127,21,23,32
15:34:45.987091,-12,1,8,-2,101,8,-1,-7
15:34:45.994089,-2,6,-7,-15,-119,14,3,9
15:34:46.010080,3,4,4,72,-17,-33,1,18
15:34:46.017073,5,3,-17,106,109,29,21,17
15:34:46.032067,4,7,12,-37,43,2,6,-1
15:34:46.033066,-2,-1,0,-1,3,1,-3,0
15:34:46.047054,-7,-2,-4,71,25,5,-4,-10
15:34:46.054051,3,-3,-2,79,-2,-23,-13,-1
15:34:46.069051,-15,1,-11,-50,-75,3,-5,-7
15:34:46.077036,-1,1,-8,-1,-128,-19,-1,11
15:34:46.092027,-3,-1,6,32,-13,-4,-9,-7
15:34:46.092027,-3,-2,-24,-126,-31,0,9,-8
15:34:46.107020,-7,-15,-6,40,116,-15,-53,2
15:34:46.114019,-2,1,6,-65,-4,3,7,-4
15:34:46.130006,16,6,12,-55,-49,-5,10,10
15:34:46.136998,12,-5,4,83,127,10,-4,-6
15:34:46.151990,-2,-3,-2,21,39,7,-7,-4
15:34:46.151990,-4,2,-10,-9,-61,-4,-10,-6
15:34:46.166980,-7,-3,10,-13,50,-1,-5,-5
15:34:46.173975,-10,-3,10,49,45,-1,-9,-11
15:34:46.189968,8,7,3,-111,-128,4,8,14
15:34:46.196962,-11,-1,-22,-35,66,10,3,-20
15:34:46.211952,-6,2,4,30,6,-17,-8,-15
15:34:46.212955,-7,-5,-1,19,-94,0,-1,3
15:34:46.226943,-31,-12,-5,38,62,-10,-14,-28
15:34:46.234944,9,8,3,-91,-46,13,7,12
15:34:46.249931,-3,-7,-9,33,-58,-3,0,4
15:34:46.256924,-7,-5,-3,17,49,4,-2,-5
15:34:46.271915,7,-6,-1,-100,-128,-11,-4,-8
15:34:46.271915,0,-1,-22,72,102,11,-3,21
15:34:46.286906,-5,-1,1,-16,-1,-10,-5,-4
15:34:46.294903,3,5,6,19,16,-4,-5,-7
15:34:46.309891,9,-1,1,-7,-3,2,7,8
15:34:46.316887,9,7,4,28,-128,-11,-31,13
15:34:46.331878,-10,-8,-9,34,63,2,-3,-10
15:34:46.339873,-10,-1,-2,-22,-8,1,-1,-6
15:34:46.354863,0,2,-9,-128,-122,13,5,9
15:34:46.354863,-7,-6,-7,47,-87,-3,2,-2
15:34:46.376853,-10,-8,-3,4,47,-4,-6,-10
15:34:46.377849,5,3,1,-37,-94,-2,11,-1
15:34:46.391841,-3,2,7,1,19,7,-7,-4
15:34:46.399835,2,0,-4,-85,-38,-3,1,2
15:34:46.414827,0,-2,-3,0,73,-2,-4,-7
15:34:46.414827,-1,-1,3,25,79,14,2,-3
15:34:46.429819,9,7,4,-1,75,7,7,12
15:34:46.436816,-13,-11,-9,-1,54,-15,-10,-13
15:34:46.451806,-1,-3,-7,-5,-9,-1,-3,-1
15:34:46.459800,-1,-1,-4,-19,-31,-5,-3,0
15:34:46.474790,-7,-2,1,11,57,-3,-8,-8
15:34:46.474790,-1,-4,2,-3,-28,-1,-5,-7
15:34:46.489780,-9,-5,-6,18,-17,-1,-7,-8
15:34:46.496778,0,-3,-3,39,69,7,1,-3
15:34:46.512768,-3,-6,0,-1,-26,-10,-3,-4
15:34:46.519761,-2,0,0,21,22,1,-11,1
15:34:46.534751,6,3,4,31,35,16,7,9
15:34:46.534751,1,1,-5,-128,-95,-8,-1,3
15:34:46.549743,-7,-4,-4,36,-38,-2,-4,-4
15:34:46.556738,8,2,0,-12,6,3,12,2
15:34:46.571730,2,2,5,21,25,2,3,8
15:34:46.579724,1,0,-1,2,-24,-2,-3,-3
15:34:46.594715,-1,0,-2,1,4,3,-1,-3
15:34:46.594715,2,6,3,-29,16,0,0,2
15:34:46.609709,-6,1,8,95,66,5,2,-1
15:34:46.616701,3,3,2,24,52,-2,1,-1
15:34:46.631691,-3,-2,-1,-4,-21,-1,2,-1
15:34:46.639687,-3,-2,-1,1,9,-1,2,0
15:34:46.654679,-4,-4,-2,5,9,-4,-3,-3
15:34:46.654679,6,8,8,41,-4,4,10,10
15:34:46.669668,4,-2,0,10,-3,-6,-2,3
15:34:46.676664,2,-3,0,23,53,4,-3,0
15:34:46.691656,1,1,-6,-70,-4,1,-1,1
15:34:46.699653,1,1,1,8,-4,-1,-1,-4
15:34:46.714641,1,0,1,7,22,5,5,8
15:34:46.714641,3,-2,1,-1,11,6,-1,-1
15:34:46.729634,-1,3,-1,-4,4,-1,0,5
15:34:46.736629,1,0,-3,-5,0,-5,-10,2
15:34:46.751618,0,1,-2,-32,-8,1,4,-1
15:34:46.759615,-2,0,-4,-118,-19,-4,-6,-7
15:34:46.774603,3,2,2,-30,4,0,3,1
15:34:46.774603,-7,-3,-3,14,4,-2,-1,-5
15:34:46.789597,-3,0,2,-13,-88,-1,2,3
15:34:46.796590,2,-1,2,13,53,7,12,6
15:34:46.812583,-2,-1,0,-40,-10,-1,0,-4
15:34:46.819578,-5,-3,-4,3,2,-4,0,-2
15:34:46.834569,0,-1,0,6,-41,-4,-1,1
15:34:46.834569,-10,0,0,-5,6,2,-4,-7
15:34:46.849560,5,-1,-3,3,-14,0,5,19
15:34:46.856554,-4,-2,4,127,34,-2,-3,-8
15:34:46.872544,0,-3,-3,78,61,-3,-4,-5
15:34:46.879541,1,2,1,15,-16,-3,0,-3
15:34:46.894529,-6,-1,-4,-11,13,-1,-2,-2
15:34:46.895531,1,0,-1,-1,24,2,-1,-1
15:34:46.909519,0,1,-2,-12,-4,-5,-2,2
15:34:46.916518,0,-1,-4,-6,-40,-7,2,2
15:34:46.932507,-1,-1,-1,13,-34,-3,-4,-7
15:34:46.939504,-1,0,-5,-128,-52,0,0,-1
15:34:46.954494,-1,-2,-3,21,-35,3,13,0
15:34:46.955493,-5,-1,3,5,-4,1,-2,-1
15:34:46.969482,-4,0,-3,17,6,2,4,4
15:34:46.976478,4,6,3,-2,-11,5,2,3
15:34:46.999467,-5,-4,-5,4,30,-3,-5,-7
15:34:47.000463,-2,-1,-1,9,12,2,-4,1
15:34:47.014458,-3,-1,-4,13,56,-3,-6,-6
15:34:47.015454,3,2,-4,3,18,6,3,7
15:34:47.029448,-1,-2,-1,8,25,-4,-7,0
15:34:47.037440,-2,-3,-5,-61,-13,-2,-5,-1
15:34:47.052434,-1,0,4,36,-1,0,2,1
15:34:47.059429,-4,-6,2,68,-2,-10,-5,-6
15:34:47.074417,1,4,2,8,4,0,-4,-1
15:34:47.074417,-6,-2,-3,1,10,3,-3,-2
15:34:47.089411,3,-1,1,-6,-64,2,2,4
15:34:47.104398,-6,-3,-4,0,-56,0,-9,-4
15:34:47.112393,1,-2,3,16,-4,2,-9,-1
15:34:47.119389,-4,-4,-3,23,-104,-15,-13,-3
15:34:47.134380,3,-3,0,46,24,4,1,-2
15:34:47.135381,0,-3,-1,12,10,5,21,0
15:34:47.149371,-9,0,-1,-8,9,-4,-9,-7
15:34:47.157367,0,1,0,7,-10,3,3,5
15:34:47.172357,2,2,-2,-1,0,-10,-4,-2
15:34:47.179355,-4,-8,-4,24,-18,0,-1,-5
15:34:47.194343,-1,-3,-1,-36,-2,-6,-2,2
15:34:47.195344,-4,-5,-1,15,15,6,-5,-4
15:34:47.209334,0,-3,0,0,1,5,5,3
15:34:47.217328,-2,-1,-7,-112,-3,2,2,5
15:34:47.232320,2,-1,4,41,-7,-2,4,4
15:34:47.239318,-1,-1,-2,12,17,-5,-9,1
15:34:47.254309,2,0,2,7,-6,4,0,0
15:34:47.255305,2,1,2,22,2,0,4,1
15:34:47.269297,-3,-6,-1,7,3,-3,-9,-3
15:34:47.277293,-4,3,1,6,6,4,7,0
15:34:47.292285,0,-1,-8,-128,-69,-2,4,10
15:34:47.299279,0,-5,-1,51,2,-14,-5,-2
15:34:47.314269,4,2,2,6,5,6,-3,0
15:34:47.322266,-3,-1,2,27,-12,1,-5,-3
15:34:47.337256,1,-3,-5,-3,10,-4,-5,-2
15:34:47.337256,-2,0,5,14,12,-6,-16,-4
15:34:47.352248,2,4,0,-9,-9,6,-1,3
15:34:47.359243,-1,-1,-1,26,14,-6,-3,-3
15:34:47.374234,0,0,-6,-115,-52,-1,-2,-3
15:34:47.382229,-6,-4,1,17,27,-2,-3,-3
15:34:47.397217,-3,0,2,6,-8,0,-3,-1
15:34:47.397217,-2,1,-3,5,6,0,-2,0
15:34:47.412210,-1,0,0,3,-6,-5,3,-2
15:34:47.419206,-6,-1,0,-19,-16,-4,-1,-1
15:34:47.434196,1,4,4,8,4,5,0,-2
15:34:47.442192,3,0,0,14,-24,-5,13,1
15:34:47.457179,0,0,1,26,46,3,-1,-3
15:34:47.457179,1,-1,2,4,45,1,3,2
15:34:47.472173,2,4,1,9,4,0,0,-1
15:34:47.479166,-2,-4,-3,-97,8,2,-3,-3
15:34:47.494157,-2,-2,7,18,8,0,-2,-2
15:34:47.502155,0,0,0,-4,-53,-8,0,0
15:34:47.517144,-4,-5,-6,-26,8,1,-2,-3
15:34:47.517144,5,-2,-1,8,2,0,5,5
15:34:47.532133,-8,-6,-2,3,20,3,-5,-7
15:34:47.539131,1,2,0,-44,16,3,-8,-3
15:34:47.554121,-3,-2,-3,8,13,-3,-2,3
15:34:47.562115,-3,-1,-1,62,-18,-1,-3,-2
15:34:47.577106,1,0,-3,28,-1,2,0,0
15:34:47.577106,-3,2,-1,5,-4,-1,-1,-1
15:34:47.592099,6,1,-1,-28,25,6,0,7
15:34:47.599094,-3,0,1,-13,-6,-1,-3,-4
15:34:47.615085,-1,4,1,5,11,0,-1,-3
15:34:47.622077,4,-3,-3,-3,-40,0,-1,1
15:34:47.637071,2,-2,2,-3,-83,-5,0,1
15:34:47.637071,-6,-3,-2,0,0,-2,-3,-3
15:34:47.652059,-4,-1,-1,-1,15,-5,-1,-3
15:34:47.659055,-6,-3,-4,-2,0,0,-1,1
15:34:47.674045,-4,1,-2,-59,-12,-5,-9,-6
15:34:47.682040,0,0,0,13,-10,-2,1,2
15:34:47.697034,-4,-1,-1,-10,-9,-3,-4,-3
15:34:47.698033,2,0,-2,8,12,4,-7,-5
15:34:47.712021,2,0,0,2,-23,3,-5,2
15:34:47.719018,-1,-1,-4,-3,-43,-9,-2,0
15:34:47.734010,0,-1,-1,-3,10,0,-3,-4
15:34:47.742006,3,0,2,3,-13,-2,-1,1
15:34:47.756994,-4,-6,-1,27,31,-3,-3,-7
15:34:47.756994,-4,-1,-1,12,-9,-2,0,0
15:34:47.771984,-1,2,2,8,8,6,1,-1
15:34:47.778982,-4,-2,1,-8,-6,-1,-6,-3
15:34:47.794973,-3,-3,-4,12,26,7,1,4
15:34:47.801969,-2,-3,-4,-11,1,-1,-2,-8
15:34:47.816957,3,3,1,40,-14,-1,0,3
15:34:47.817956,-5,-5,-5,-28,22,-1,-6,-5
15:34:47.831947,2,-3,-2,-3,5,6,3,0
15:34:47.838943,1,0,0,1,-1,-1,0,1
15:34:47.854936,0,1,0,3,18,0,-1,0
15:34:47.861929,1,0,-4,-41,11,2,2,3
15:34:47.883916,-7,0,0,25,12,1,7,-5
15:34:47.884914,0,1,2,6,4,-6,-6,2
15:34:47.891910,2,2,4,-6,3,7,13,5
15:34:47.899908,-1,-2,4,-86,-58,-7,-2,-3
15:34:47.914899,-1,-1,-3,20,22,2,-2,-6
15:34:47.921891,0,-1,-1,0,1,0,-1,-2
15:34:47.936885,3,-2,2,-6,-20,-4,1,1
15:34:47.943880,1,1,2,2,1,2,-3,-5
15:34:47.951876,-3,-2,0,1,-2,-3,-4,-5
15:34:47.958872,-5,-1,-2,-5,-2,1,0,-6
15:34:47.974862,-2,-1,3,19,-41,0,-7,-3
15:34:47.981854,-1,-5,-3,19,40,-8,-3,-1
15:34:47.996845,-4,0,0,3,36,5,-7,0
15:34:48.004840,5,5,3,12,31,1,4,4
15:34:48.011836,-3,-1,0,-6,-4,-1,0,-4
15:34:48.019836,-1,0,0,2,-6,-3,-1,-4
15:34:48.034821,-2,-1,-1,-4,-6,-2,-2,1
15:34:48.041818,3,2,2,8,4,0,0,0
15:34:48.056811,3,1,2,6,2,1,0,0
15:34:48.064807,-1,-4,-4,-4,0,7,-8,-1
15:34:48.071802,-2,0,0,-2,10,5,4,2
15:34:48.079799,-2,4,1,6,-51,0,0,-4
15:34:48.094785,-2,-4,-1,26,31,15,5,1
15:34:48.101783,-3,-3,-3,-1,-1,2,4,9
15:34:48.116771,0,0,0,-3,-5,-3,-2,-1
15:34:48.124769,1,-1,-1,2,3,5,2,0
15:34:48.131764,0,1,-1,-4,-6,1,-3,3
15:34:48.139756,-1,-1,5,4,-94,-7,-1,-1
15:34:48.154747,-11,-9,-6,-3,67,-3,-10,-8
15:34:48.169738,0,0,-6,-73,-52,-2,1,3
15:34:48.176734,-2,-4,3,12,5,-1,0,0
15:34:48.184729,-3,-1,0,-2,-11,-2,7,1
15:34:48.191727,-2,-1,-1,1,-3,-3,3,0
15:34:48.199720,-5,-1,0,3,5,1,6,5
15:34:48.214711,-1,-2,1,0,-2,-5,-8,-5
15:34:48.221708,-3,0,-1,-7,17,-8,0,2
15:34:48.236697,-4,-2,1,1,28,-3,-3,-1
15:34:48.251688,5,4,4,32,33,-6,2,3
15:34:48.259682,-6,-2,-2,7,6,-2,-4,-3
15:34:48.259682,1,3,3,4,17,10,1,6
15:34:48.274673,4,2,2,-43,-89,-6,1,2
15:34:48.281669,-7,-6,-3,0,-10,-4,-5,-6
15:34:48.296661,4,0,0,-2,0,3,8,0
15:34:48.304657,-8,-3,-1,2,4,7,1,-3
15:34:48.319645,-3,1,0,7,8,-2,0,-1
15:34:48.319645,-3,-3,-3,1,16,-7,-8,-7
15:34:48.334636,-2,-3,-6,-29,-7,-2,-7,-2
15:34:48.341633,-3,-1,-4,-1,-1,-3,3,0
15:34:48.356624,-1,-1,-2,26,-1,0,-1,-4
15:34:48.364620,0,-3,-3,0,-4,0,0,-4
15:34:48.379612,4,2,-1,-2,-38,0,1,-1
15:34:48.386603,1,-1,-1,-4,-1,2,3,0
15:34:48.397600,-3,0,-3,-9,3,-3,10,-1
15:34:48.401593,-1,-1,-3,6,26,-1,-5,-1
15:34:48.416588,6,-1,-3,-7,4,4,2,1
15:34:48.424580,2,2,3,-2,-51,-7,-2,4
15:34:48.439573,-3,-2,-3,22,8,2,-1,-3
15:34:48.439573,1,0,-1,14,-41,-6,0,3
15:34:48.454564,-1,-3,2,17,-46,-1,0,2
15:34:48.461559,0,1,-3,-1,-44,1,0,2
15:34:48.476548,0,-1,-2,5,18,4,-2,1
15:34:48.484542,1,-1,-1,-3,-11,-3,0,2
15:34:48.499534,-2,0,-1,-6,9,6,-1,1
15:34:48.500532,2,0,0,4,-21,0,14,0
15:34:48.514524,-4,-1,-1,-3,1,2,-5,-4
15:34:48.521522,-4,-1,-2,4,-2,-2,-2,-7
15:34:48.537510,-4,1,-3,-17,-6,4,0,3
15:34:48.544508,-4,-1,-1,11,-36,-9,-5,-1
15:34:48.559499,-1,1,3,-1,-91,-3,-6,-2
15:34:48.560496,-3,-5,-7,-12,25,-5,-2,-3
15:34:48.574490,-1,0,-2,8,9,2,1,1
15:34:48.582485,0,-1,0,0,-1,-1,-1,0
15:34:48.597474,-1,-2,-2,-6,-2,-2,0,2
15:34:48.604468,1,0,1,23,-1,0,0,0
15:34:48.619459,1,-2,1,23,-31,-1,-2,0
15:34:48.620460,-2,0,0,8,18,-1,1,-7
15:34:48.634449,5,3,2,11,36,-1,2,4
15:34:48.641447,1,0,0,2,32,0,-4,1
15:34:48.657437,-3,-1,1,-3,14,1,-2,-2
15:34:48.664434,-1,0,-2,-5,-6,-4,-1,-1
15:34:48.679425,0,-2,-1,34,4,2,1,0
15:34:48.680421,-2,-2,-1,-6,-41,-5,-2,0
15:34:48.694415,-4,-4,1,7,13,1,-5,-5
15:34:48.702410,1,3,1,25,-128,-9,1,1
15:34:48.717401,-8,-5,-3,-21,-10,-5,-6,-5
15:34:48.732392,1,2,0,11,16,3,2,-2
15:34:48.739388,3,3,4,70,-53,-4,4,3
15:34:48.740387,-11,-9,-14,60,76,-6,-11,-9
15:34:48.754378,-4,0,1,7,13,-1,-1,-4
15:34:48.762371,-1,-1,1,-11,-5,2,0,2
15:34:48.777363,-2,0,1,20,3,-1,1,3
15:34:48.784359,1,-3,-3,0,-14,-4,1,-2
15:34:48.799350,-1,-2,-1,-3,1,-3,-1,-7
15:34:48.800349,-1,0,-1,-3,-3,1,-1,0
15:34:48.814341,1,0,1,4,8,8,1,4
15:34:48.822333,-7,-6,-4,15,-7,-6,-6,-8
15:34:48.837327,-2,0,-3,-22,-21,5,1,0
15:34:48.844322,-4,-5,-3,10,6,1,-3,0
15:34:48.859313,-2,-2,-3,-5,-4,-2,-1,-2
15:34:48.860313,0,-4,0,-1,-2,0,-2,-2
15:34:48.874304,-1,2,1,3,0,-3,1,2
15:34:48.889292,-4,-3,-3,-1,-11,0,-4,-2
15:34:48.897290,-3,0,-3,-1,8,-2,2,1
15:34:48.904282,3,2,5,8,2,3,2,4
15:34:48.919273,-5,-5,-3,-4,5,-1,-1,-4
15:34:48.920277,2,3,2,-4,-3,-4,1,3
15:34:48.934264,1,-1,-1,-1,28,7,0,1
15:34:48.942259,-1,-1,-1,-44,-18,-6,-2,-1
15:34:48.957254,-3,-1,-1,7,11,-4,-2,-5
15:34:48.964245,1,2,1,1,-1,1,2,0
15:34:48.987231,-1,2,-2,-5,0,0,-2,0
15:34:48.987231,1,-2,1,1,1,-3,-1,1
15:34:49.002221,-3,-4,0,-5,-6,-3,-1,-1
15:34:49.002221,-4,-3,-1,-2,-2,0,-2,-1
15:34:49.017215,0,-2,0,-1,5,0,-1,-1
15:34:49.024211,0,2,-4,-1,-3,-5,1,-5
15:34:49.039201,2,1,1,1,5,3,-2,1
15:34:49.040201,-1,0,-5,-5,-6,-3,-2,-3
15:34:49.054192,-6,-6,-1,15,12,-3,-4,-9
15:34:49.062184,1,2,2,1,2,-1,1,-1
15:34:49.077178,1,-1,0,4,-9,-5,-1,0
15:34:49.084173,-2,-2,-4,-2,4,0,-2,3
15:34:49.100164,-4,-2,-2,-3,-1,1,0,-1
15:34:49.107159,5,-1,2,3,3,3,4,4
15:34:49.114153,0,2,1,2,3,3,-3,0
15:34:49.122150,0,-2,-4,-4,-3,0,-3,-4
15:34:49.137140,-2,0,-2,-1,-1,-1,-2,0
15:34:49.145134,-3,-1,-2,0,-3,-4,-1,1
15:34:49.159127,2,0,0,-1,1,1,-2,-3
15:34:49.160126,2,1,-1,0,0,-2,-1,1
15:34:49.182113,-2,-2,-1,0,3,1,2,-2
15:34:49.183110,2,4,1,3,2,0,-5,-1
15:34:49.197103,0,-1,-3,-3,0,1,17,1
15:34:49.213092,-2,-4,1,-3,-8,-2,-1,5
15:34:49.219086,-4,-4,-5,-3,-3,0,-3,-8
15:34:49.227081,2,-2,1,-2,-1,2,7,7
15:34:49.241076,-3,-3,-3,-2,-5,-11,-19,-7
15:34:49.242074,0,-2,-3,-1,-4,-1,-1,0
15:34:49.257063,2,2,1,1,1,-1,-2,2
15:34:49.264060,-2,-4,-4,-4,-4,1,-5,0
15:34:49.279050,6,3,3,2,-1,-2,3,3
15:34:49.287044,3,1,0,1,-1,-3,-2,-1
15:34:49.302035,0,2,1,3,3,-6,-1,0
15:34:49.302035,-3,1,0,-5,-1,-4,-4,-1
15:34:49.317026,-1,-3,0,-1,-2,-1,-5,0
15:34:49.324022,5,1,3,5,4,1,-1,2
15:34:49.339012,-1,-2,-1,-2,-3,0,-3,2
15:34:49.354015,0,-1,-2,-2,2,1,-2,0
15:34:49.361998,2,0,-1,-1,-4,-2,6,11
15:34:49.363001,-1,0,-1,2,1,3,-3,-2
15:34:49.376998,4,3,0,-2,0,2,2,0
15:34:49.383984,-3,2,-1,2,1,-1,-3,-5
15:34:49.398975,7,4,1,6,5,2,5,3
15:34:49.406970,2,1,0,-2,-2,2,1,0
15:34:49.421960,2,0,2,2,3,-4,0,3
15:34:49.421960,-2,-1,1,2,1,2,-1,-2
15:34:49.436951,0,2,-1,-2,1,1,1,-1
15:34:49.443948,0,0,1,-2,2,2,0,1
15:34:49.458939,0,0,0,0,1,-8,-2,-2
15:34:49.468932,2,1,0,2,-4,-5,3,3
15:34:49.481924,-2,-3,-2,-3,-4,-6,-5,-4
15:34:49.481924,0,1,1,3,4,2,3,1
15:34:49.496915,-1,-5,0,-2,-3,-1,-2,-3
15:34:49.503912,-2,-3,-1,-3,-2,-3,-4,3
15:34:49.518915,0,-1,0,-2,-2,0,-5,-1
15:34:49.526895,-4,-2,-1,-1,-2,-4,-2,-2
15:34:49.541888,-1,0,1,0,6,3,-2,-1
15:34:49.541888,-2,0,-1,1,2,3,23,-1
15:34:49.556878,-4,-3,-4,-3,-5,-1,-13,-2
15:34:49.563873,-1,-2,0,0,0,-1,4,-3
15:34:49.579864,-1,-2,-3,-5,-2,0,-2,-2
15:34:49.586860,-3,-2,2,2,0,-4,-4,-5
15:34:49.601850,2,2,0,0,-2,2,-1,2
15:34:49.601850,5,0,0,-2,2,-6,-1,2
15:34:49.616840,-1,-1,0,-1,-7,1,-4,0
15:34:49.623835,-5,-5,-3,-1,-2,-2,-3,-4
15:34:49.638826,-3,-3,-3,-5,-5,-2,-3,-4
15:34:49.646822,1,2,1,0,2,-1,1,0
15:34:49.664810,-3,-1,-3,-1,-4,1,-1,-2
15:34:49.664810,0,1,1,1,4,0,-3,0
15:34:49.676803,-5,-2,-2,1,3,2,0,1
15:34:49.683798,0,1,0,2,2,1,-1,0
15:34:49.699789,0,-1,0,-1,1,3,1,0
15:34:49.706785,-1,3,-3,0,-1,-1,0,3
15:34:49.721776,3,1,1,3,3,-3,1,5
15:34:49.721776,2,2,2,-2,-9,-3,-3,-1
15:34:49.736766,-1,-4,-2,-5,-1,1,-2,-1
15:34:49.744761,1,-1,-1,4,0,-5,-1,1
15:34:49.758751,1,0,-3,-2,2,0,0,-1
15:34:49.766747,-1,-2,0,1,7,2,0,0
15:34:49.782738,0,-4,-1,-2,-2,1,-1,0
15:34:49.782738,2,0,1,2,12,12,2,2
15:34:49.796729,-2,2,0,1,-4,-3,-4,0
15:34:49.813718,-4,-2,-3,0,-1,-1,2,-3
15:34:49.819715,-1,-4,0,1,0,4,-1,-2
15:34:49.826710,0,-2,0,-1,-2,-3,-1,-1
15:34:49.841701,1,1,-2,1,3,1,2,1
15:34:49.841701,-3,-4,-5,-1,0,4,0,-2
15:34:49.856691,3,3,2,-1,-5,-1,-3,3
15:34:49.866685,-1,-4,-2,-1,0,-4,-5,-2
15:34:49.879677,5,-1,0,-2,1,0,-4,0
15:34:49.886673,-3,-3,-3,0,-2,1,1,1
15:34:49.901664,-1,-1,0,-3,-1,3,-3,0
15:34:49.901664,-3,-2,-1,-2,-1,0,0,0
15:34:49.916654,0,-2,1,2,1,2,-4,-3
15:34:49.923650,0,-4,-2,-3,-6,-5,-1,0
15:34:49.940640,-1,2,1,3,4,-5,-2,1
15:34:49.948635,-4,-2,-2,-1,-3,0,0,-3
15:34:49.963626,-1,0,-3,-1,1,0,-1,-1
15:34:49.964625,-2,0,0,2,-1,-2,0,-2
15:34:49.976617,-1,-2,1,-3,-5,-2,-2,-2
15:34:49.983613,-4,-2,-2,0,0,0,-2,-3
15:34:49.998604,-4,-2,-2,-6,-1,-2,-4,-3
15:34:50.006599,-4,-3,-2,-5,-3,-4,-5,-2
15:34:50.021589,-1,-4,-1,1,-5,0,-1,-3
15:34:50.021589,-2,-4,-3,-1,0,-2,-3,1
15:34:50.036580,-3,-2,-1,0,-2,0,-2,-3
15:34:50.043575,-1,-1,-1,1,-1,1,0,3
15:34:50.059569,-2,-1,-2,-4,3,-4,-2,-1
15:34:50.066561,-5,-4,-2,4,-2,-2,-1,-4
15:34:50.081552,0,-1,-1,2,2,7,2,1
15:34:50.082552,0,-2,-2,-3,-4,1,1,-1
15:34:50.096542,-2,1,-3,-2,2,4,1,-3
15:34:50.111534,2,-3,0,0,2,0,1,-2
15:34:50.119528,1,1,0,0,1,3,0,3
15:34:50.126528,1,0,-1,0,1,0,1,3
15:34:50.141514,-6,-1,0,-4,-4,2,-4,-1
15:34:50.149509,-2,1,0,0,-1,-2,1,-1
15:34:50.164500,6,2,3,3,-3,0,0,4
15:34:50.164500,-5,-1,-3,-1,0,-2,-2,-2
15:34:50.179491,0,1,1,1,-1,-3,0,-1
15:34:50.186489,3,-1,-1,0,5,6,4,3
15:34:50.201477,0,-2,-1,-1,0,0,-1,-4
15:34:50.208475,0,-1,0,-1,-3,-3,-2,-1
15:34:50.224464,-1,1,-2,-6,-7,-1,-3,-1
15:34:50.224464,-3,-5,-3,-4,-3,-3,1,-4
15:34:50.239453,-2,3,1,-2,-2,0,1,0
15:34:50.246449,0,0,-1,-2,-2,-3,-2,-2
15:34:50.261440,1,1,1,4,9,0,0,0
15:34:50.269435,0,-2,1,2,2,2,2,0
15:34:50.284425,-2,-3,-1,1,0,-2,-1,-1
15:34:50.284425,1,3,0,3,-1,-1,-1,0
15:34:50.299416,-2,-1,-5,1,1,-3,0,1
15:34:50.306412,1,-2,0,-5,-3,0,-2,-3
15:34:50.329398,1,-3,-1,-4,0,-4,-3,-1
15:34:50.329398,5,5,5,5,0,-3,3,4
15:34:50.344388,2,1,2,1,6,2,-1,0
15:34:50.344388,-2,-2,-4,-7,-8,-5,-5,-7
15:34:50.366374,-4,0,0,-2,-5,-6,0,-1
15:34:50.367374,-1,0,0,1,-1,-2,-2,-2
15:34:50.381367,-5,-1,-1,-4,-5,-1,0,-6
15:34:50.389361,3,2,0,0,2,5,3,2
15:34:50.404351,0,-3,1,-4,0,-2,-1,-2
15:34:50.404351,0,-2,-3,-2,-5,-3,1,-1
15:34:50.419344,-4,-3,0,0,5,-1,-5,-5
15:34:50.426347,-1,-3,0,-1,-7,-1,0,0
15:34:50.441331,-1,2,2,-2,-3,-5,-3,-3
15:34:50.449323,1,-5,0,0,-7,-2,3,3
15:34:50.472318,-4,-2,-3,-2,-5,-5,-2,-2
15:34:50.472318,-1,-3,-1,-4,0,-2,-4,0
15:34:50.479307,-4,0,-4,-2,-2,-2,-2,-3
15:34:50.486303,0,0,0,3,-3,-3,-1,0
15:34:50.501294,-2,2,0,2,1,-2,0,-1
15:34:50.509287,-1,-3,0,-1,-3,-1,0,0
15:34:50.524278,1,-1,-5,1,-5,1,1,-5
15:34:50.524278,3,-1,0,-2,-5,-2,-2,-3
15:34:50.539269,0,-1,0,-1,-3,0,2,-2
15:34:50.547263,-2,-1,1,-1,-4,0,-3,-1
15:34:50.562254,-1,2,-2,-1,-2,1,-1,-1
15:34:50.576248,-2,0,3,1,-1,4,-1,0
15:34:50.584241,-2,-4,-3,-5,-2,-3,-1,-2
15:34:50.584241,0,-1,1,0,-3,-4,-2,-3
15:34:50.599234,-2,-1,-3,-2,3,4,-1,1
15:34:50.607229,-2,-1,-2,-1,-4,-3,0,-3
15:34:50.622220,-1,0,-2,-2,-3,-2,0,0
15:34:50.630214,0,-2,-4,-4,-2,-1,-3,-1
15:34:50.645204,6,5,6,7,6,-10,2,5
15:34:50.645204,-2,3,1,0,2,-2,-4,0
15:34:50.667189,-1,0,-1,-1,6,0,-2,-2
15:34:50.667189,2,1,1,-1,-16,-1,0,3
15:34:50.682179,-3,0,-2,-3,3,2,-3,-4
15:34:50.689176,-1,-1,-1,1,-1,0,-1,0
15:34:50.704166,1,0,0,-2,-5,-1,-1,-4
15:34:50.705168,0,-1,-2,-3,-3,2,0,-1
15:34:50.719158,-1,-5,-1,-4,-3,-2,-4,-5
15:34:50.727152,0,-3,-4,-1,2,2,2,-4
15:34:50.749138,0,-3,-2,2,0,-1,-1,1
15:34:50.750137,5,0,3,3,1,-1,1,-1
15:34:50.765129,-3,-5,-3,-3,-4,-3,0,1
15:34:50.765129,1,1,1,-2,-2,0,0,0
15:34:50.787120,-1,-1,-2,-1,1,6,2,0
15:34:50.787120,-3,-3,0,1,1,1,1,-2
15:34:50.802108,0,0,1,5,0,-1,-2,3
15:34:50.809104,-1,3,2,0,2,-2,2,-1
15:34:50.832090,-3,-4,0,-1,-5,-1,-1,-2
15:34:50.832090,0,-5,-3,-1,1,1,-3,-1
15:34:50.839085,-3,0,-2,-1,-4,1,-1,-1
15:34:50.847080,1,3,-2,-5,-1,0,1,2
15:34:50.863068,-3,-1,1,-2,-3,0,-3,-6
15:34:50.869064,2,0,2,0,0,-3,0,3
15:34:50.892052,2,-2,-1,1,-2,-8,-1,-1
15:34:50.892052,-2,-2,-2,-2,-5,-3,-2,-4
15:34:50.899047,-1,2,2,2,-2,-1,1,-2
15:34:50.914035,-4,1,2,2,3,-1,0,2
15:34:50.922034,-2,-1,-3,-2,-2,-4,-4,-2
15:34:50.930026,0,2,2,-2,2,2,-1,0
15:34:50.944020,2,-2,-4,-1,-4,-1,0,-1
15:34:50.945017,-2,-4,-3,0,1,5,-1,0
15:34:50.959009,-2,-3,-1,-3,-5,-2,-2,1
15:34:50.967006,0,-1,-6,-1,0,0,0,1
15:34:50.981996,-4,-2,-2,-2,0,0,-2,-5
15:34:50.989992,1,1,1,4,4,0,0,-1
15:34:51.003980,-1,-5,-5,-5,0,0,0,1
15:34:51.004979,0,0,-3,0,0,-4,-2,-2
15:34:51.018972,-3,-1,-1,-2,-6,-2,2,0
15:34:51.026968,2,0,-3,0,-2,1,-2,-1
15:34:51.041958,-1,-1,-1,-3,1,1,0,-3
15:34:51.049953,2,-4,-3,-1,-2,2,3,-2
15:34:51.063943,-2,-4,-1,-3,-11,-5,-3,-3
15:34:51.064943,-2,0,-1,3,3,-1,-1,-2
15:34:51.086931,1,-3,-2,-2,-4,-3,0,1
15:34:51.087928,-1,-1,-4,-1,-2,-3,-2,-1
15:34:51.101922,-4,-2,-2,-2,0,-3,-1,-5
15:34:51.108917,-1,-2,0,0,-7,-5,0,-2
15:34:51.124908,0,1,-3,0,1,5,1,4
15:34:51.131903,1,1,-1,-4,0,-2,0,0
15:34:51.146894,1,-1,-2,-4,-2,1,-2,0
15:34:51.147891,1,2,-3,0,-5,4,1,1
15:34:51.161882,-2,-1,-3,0,2,0,1,-1
15:34:51.176876,-2,-1,-1,-2,-1,-2,1,-2
15:34:51.191866,-1,-2,-1,-3,-3,-2,-1,-1
15:34:51.192863,0,-2,-4,-4,-3,-2,0,-1
15:34:51.206857,1,0,3,6,3,-3,3,1
15:34:51.207860,0,-1,-3,-4,-11,-3,-3,-1
15:34:51.221845,-4,-2,1,-2,-2,-2,0,-3
15:34:51.229842,1,-1,-1,0,0,0,0,-1
15:34:51.244831,-2,0,1,2,-1,1,0,0
15:34:51.251826,2,2,3,4,-2,-5,1,1
15:34:51.266818,-4,-2,-1,-3,0,-3,0,0
15:34:51.267816,0,0,0,2,0,4,0,2
15:34:51.281807,0,0,-1,-3,0,0,-2,-4
15:34:51.289803,-1,0,-1,-1,-2,0,2,-1
15:34:51.304797,-2,1,1,-1,1,1,1,2
15:34:51.311789,-2,-2,-2,1,2,-1,-2,-1
15:34:51.326780,1,-2,1,1,4,0,3,1
15:34:51.327782,-1,1,-2,-1,-1,0,0,-4
15:34:51.341774,-1,-4,-1,-1,2,0,2,0
15:34:51.349766,2,0,-1,0,-6,-3,2,-2
15:34:51.364757,-1,1,2,2,2,-1,-1,0
15:34:51.371754,1,-3,-4,0,1,0,2,0
15:34:51.386743,0,-4,-2,0,-10,-7,-1,-1
15:34:51.387742,-2,0,-1,-3,2,-3,3,0
15:34:51.401734,0,0,2,-1,-3,-2,0,2
15:34:51.416724,1,-1,-1,-2,4,3,1,-1
15:34:51.427718,-1,-2,-3,0,-7,-4,-2,-1
15:34:51.431715,-3,-3,1,-4,-2,-3,-1,-2
15:34:51.446705,-2,-2,-3,0,-1,0,-3,-3
15:34:51.447707,-5,0,-1,-1,1,-3,1,2
15:34:51.461697,1,2,2,4,7,3,1,-1
15:34:51.469691,0,1,0,-3,-5,-3,-3,-2
15:34:51.484685,1,2,0,3,0,1,-1,0
15:34:51.491677,3,2,0,1,5,3,0,3
15:34:51.506671,-2,-4,-2,-2,-3,-2,-1,-3
15:34:51.507668,0,-3,0,0,0,-1,-2,-3
15:34:51.521660,-2,-3,0,-3,-10,-5,-5,-2
15:34:51.529654,0,-1,-2,1,2,1,-1,0
15:34:51.547645,-1,-3,-4,-3,-4,0,-4,-1
15:34:51.551642,1,2,4,5,3,-2,1,4
15:34:51.566631,-2,-3,-3,0,-1,0,-4,-1
15:34:51.567633,-1,0,-3,0,-1,0,2,-2
15:34:51.581623,1,-1,0,-4,-4,0,0,-2
15:34:51.589624,-2,1,0,-1,-2,-2,1,-1
15:34:51.604611,-3,-1,-2,-1,-4,-1,-3,-4
15:34:51.611605,1,1,-1,1,1,-2,-1,0
15:34:51.634591,-2,-4,-2,-3,-3,-2,0,-3
15:34:51.635591,-1,2,1,-2,5,3,0,0
15:34:51.641585,-1,-4,-2,-1,1,-2,0,-1
15:34:51.649582,0,-3,-1,-2,-3,-1,2,1
15:34:51.664573,-3,-2,-1,-3,6,1,3,0
15:34:51.672566,3,-3,2,4,0,-1,1,3
15:34:51.687556,-1,-1,-1,-1,-1,0,-1,0
15:34:51.687556,-1,-1,-1,-3,0,0,-1,-1
15:34:51.701549,0,-2,-2,-1,-2,1,-1,-1
15:34:51.709546,-1,-2,-1,-4,-8,-6,-2,0
15:34:51.724533,-1,-1,0,-1,1,-1,0,-2
15:34:51.731528,-3,-3,1,2,-2,0,-1,-2
15:34:51.746520,-2,-4,-4,-5,-1,-1,-1,-3
15:34:51.747521,0,-2,-1,1,-7,0,0,0
15:34:51.761512,0,1,4,5,7,3,2,-1
15:34:51.769506,1,0,-1,-4,-4,-3,-2,-1
15:34:51.784496,0,0,-3,0,-2,-2,-1,0
15:34:51.791491,-1,-2,1,-3,-6,-1,-1,1
15:34:51.806482,-3,-2,0,0,-3,0,-2,-3
15:34:51.807482,-3,0,-3,-1,-4,0,-1,-2
15:34:51.822472,-1,0,-3,-3,-5,-2,0,2
15:34:51.829468,-2,0,-2,0,4,2,-3,-1
15:34:51.844459,2,1,0,2,0,1,2,2
15:34:51.852458,0,-1,1,-2,-2,2,-1,-2
15:34:51.866447,-2,-1,0,-1,0,-3,-2,-1
15:34:51.867447,1,-1,-4,2,5,2,2,-1
15:34:51.882437,1,1,4,2,-4,-2,-1,1
15:34:51.889431,0,-1,1,-2,-5,-1,-1,-1
15:34:51.904422,1,-2,-2,4,0,0,2,-1
15:34:51.911417,-5,-1,-1,-10,-7,-6,-2,-3
15:34:51.927407,-3,-3,0,-1,1,-1,0,-4
15:34:51.927407,1,-1,0,0,-6,-3,0,-2
15:34:51.942398,0,-2,-3,-1,6,3,1,-2
15:34:51.949396,-3,-1,-1,-4,-3,-5,1,-3
15:34:51.964387,1,0,-2,0,0,2,-2,-3
15:34:51.972382,-1,-2,0,1,6,-5,-1,1
15:34:51.987370,-1,-3,-3,-4,3,1,1,-2
15:34:51.987370,-1,-1,1,-3,-3,-3,-4,-2
