timestamp,emg1,emg2,emg3,emg4,emg5,emg6,emg7,emg8
16:21:11.272947,-5,-3,-4,-2,0,-6,-8,-7
16:21:11.280938,-1,-1,0,-3,-1,0,1,-2
16:21:11.297929,0,0,1,1,1,-1,-1,1
16:21:11.302926,7,1,2,-4,2,3,3,3
16:21:11.324911,-5,-5,-4,-4,0,-3,-12,-11
16:21:11.325910,-19,-5,0,-3,-6,-6,4,-14
16:21:11.332906,-16,-8,-9,-10,-8,-10,-26,-31
16:21:11.339904,-5,-2,0,0,0,-2,-8,-8
16:21:11.354956,2,1,3,0,6,2,0,-2
16:21:11.362889,-3,-2,-4,-3,-4,-5,-8,-2
16:21:11.377879,0,-2,1,-1,-1,2,0,-1
16:21:11.377879,11,-2,1,0,-5,-5,11,-7
16:21:11.400865,18,-8,-6,-6,-3,-16,-19,25
16:21:11.400865,-10,-3,-5,-2,1,4,-6,-8
16:21:11.414862,8,2,1,1,2,2,16,22
16:21:11.422853,-11,-9,-10,-9,-12,-17,-14,-17
16:21:11.437846,-2,0,2,0,-1,2,-1,-1
16:21:11.437846,-4,-1,0,-1,-4,-6,-15,-8
16:21:11.452833,-4,-4,-1,-1,0,0,-1,-3
16:21:11.459831,0,-5,0,-1,2,4,7,5
16:21:11.474821,22,11,6,9,6,13,21,28
16:21:11.482815,4,0,-2,-2,-4,-9,-17,-8
16:21:11.497805,-6,-3,-5,-1,0,2,4,0
16:21:11.497805,2,2,-3,1,0,1,4,-6
16:21:11.512796,1,0,1,3,-3,2,18,8
16:21:11.520790,-1,-3,-3,-3,0,-3,-3,-10
16:21:11.542778,12,1,0,0,-1,-4,-13,-2
16:21:11.542778,-5,-5,0,1,-2,2,1,-8
16:21:11.557769,2,-1,-1,4,6,2,5,-11
16:21:11.557769,11,0,3,0,0,1,13,9
16:21:11.572759,0,8,5,7,6,6,10,5
16:21:11.579757,-4,0,-1,0,2,-4,-3,-7
16:21:11.594748,2,3,3,0,5,3,16,-4
16:21:11.602741,2,0,2,-2,-3,0,2,1
16:21:11.617732,-2,1,-5,-3,-4,2,0,-4
16:21:11.617732,-15,-8,-3,-6,-6,-7,-22,-43
16:21:11.632722,3,-7,-6,-10,-7,-7,-8,-10
16:21:11.639721,-10,-4,-5,-1,-2,-7,-6,-7
16:21:11.654715,7,1,2,1,-3,-1,-7,4
16:21:11.662703,-1,2,-1,1,0,4,2,5
16:21:11.677695,1,-3,-4,-4,-3,2,-4,-1
16:21:11.677695,2,0,-1,0,-5,-4,-4,11
16:21:11.692685,-1,0,-3,-5,-3,-10,-3,7
16:21:11.707676,-1,-3,-1,0,-6,-4,-3,1
16:21:11.714680,-14,-6,-1,1,0,-4,-7,0
16:21:11.722666,-21,-2,-1,-1,2,6,0,-14
16:21:11.737658,-13,-5,-4,-4,-6,-9,-6,-14
16:21:11.737658,-3,-1,-3,0,-2,-1,-6,-8
16:21:11.759646,0,0,2,2,0,0,-5,1
16:21:11.760643,-8,-1,-3,0,-3,-1,-2,-11
16:21:11.774637,-2,-6,-7,-5,-4,-5,-2,-4
16:21:11.782630,-2,3,1,1,0,-1,2,1
16:21:11.797620,-5,-1,-2,-1,0,0,7,-7
16:21:11.805617,0,3,-1,0,-1,-3,-8,-9
16:21:11.820606,1,0,-1,4,2,8,-3,-1
16:21:11.820606,-3,0,-3,-2,-4,0,6,-11
16:21:11.835608,-5,-5,-7,-7,-6,3,-3,-6
16:21:11.842592,-13,-7,-1,0,0,-3,-18,-31
16:21:11.857583,1,0,2,-2,-1,3,-2,-2
16:21:11.864581,-2,-1,-1,1,-1,-3,-3,-5
16:21:11.880568,-1,0,1,2,-1,0,-6,-3
16:21:11.880568,-7,2,1,0,4,4,1,3
16:21:11.895561,-8,-1,-2,-1,1,-6,-19,-15
16:21:11.910561,38,3,-5,-4,0,4,17,47
16:21:11.924553,-18,-6,3,3,-1,-13,-40,11
16:21:11.925541,4,2,2,3,3,8,6,7
16:21:11.940533,-3,0,1,2,-2,-4,-4,-8
16:21:11.940533,-7,-2,-2,-4,-1,-1,-3,-4
16:21:11.955524,0,-2,0,-1,-1,-4,-3,-3
16:21:11.962522,1,-5,-3,1,-3,0,-4,-6
16:21:11.977509,-1,-15,-9,-8,-16,-21,-15,-4
16:21:11.985506,2,3,6,5,6,18,30,14
16:21:12.000495,18,-1,-1,-3,-4,-15,4,16
16:21:12.000495,-3,0,1,0,0,2,0,-5
16:21:12.015486,1,1,2,0,-2,-2,4,-1
16:21:12.022482,-3,-5,-1,-1,0,-1,2,-1
16:21:12.037472,1,-3,0,0,-3,-3,-5,2
16:21:12.045485,-2,0,0,-1,-1,-1,-31,-16
16:21:12.060459,1,5,2,0,5,17,1,6
16:21:12.067454,-3,-13,-13,-8,-6,-2,5,2
16:21:12.075459,-3,5,2,3,3,3,-2,-16
16:21:12.082446,-1,1,2,0,6,4,4,-1
16:21:12.097435,-2,-2,-2,1,2,0,-1,1
16:21:12.105432,0,-3,-2,0,-1,2,-5,3
16:21:12.120422,2,0,1,-2,-1,-4,-4,-3
16:21:12.120422,-5,-5,-2,-4,-2,0,-11,-13
16:21:12.135414,-6,-5,-5,-6,-4,-7,-14,-11
16:21:12.142467,24,4,1,-5,-2,0,6,37
16:21:12.157466,3,3,0,1,-1,-4,3,-1
16:21:12.165395,-3,-3,-3,0,-1,-3,-2,-4
16:21:12.180387,-5,-1,-4,-3,-3,0,-5,-5
16:21:12.180387,-2,-2,1,1,-2,-7,2,0
16:21:12.195376,3,-1,0,0,0,-4,-2,-1
16:21:12.202370,0,-2,2,4,4,9,11,6
16:21:12.217361,6,-1,1,1,0,-3,-11,0
16:21:12.232370,7,0,-3,-1,-3,-2,-8,1
16:21:12.240348,2,1,-1,-7,-5,-16,-24,1
16:21:12.240348,14,4,1,-1,3,10,15,33
16:21:12.255339,0,-1,2,1,3,3,12,5
16:21:12.262337,-7,-4,-4,-2,-3,-8,-43,-10
16:21:12.277328,0,-1,1,-1,0,-8,-7,6
16:21:12.285321,-8,3,1,-1,-1,2,-3,-9
16:21:12.300311,-2,2,1,1,-3,-6,-10,-14
16:21:12.301310,-5,-7,-8,-10,-10,-4,-9,-15
16:21:12.315302,-6,1,-1,2,2,1,5,-4
16:21:12.322300,9,4,2,2,4,10,13,17
16:21:12.338287,-10,-1,-1,4,1,6,6,1
16:21:12.345284,0,-2,-3,-1,-3,-11,8,2
16:21:12.360275,-5,-2,-5,-1,1,3,-17,-16
16:21:12.360275,8,2,4,2,2,-2,7,15
16:21:12.375265,6,4,3,3,6,9,11,6
16:21:12.383261,-4,-5,-1,0,-5,-5,-3,-9
16:21:12.398254,-1,1,1,1,-1,4,5,0
16:21:12.405250,-1,-2,-2,1,2,7,9,8
16:21:12.434230,-11,-2,0,1,1,-4,-9,-20
16:21:12.436228,-14,-5,-8,-5,-4,-4,-17,-12
16:21:12.439226,-4,-2,2,3,0,0,3,-2
16:21:12.442226,0,-5,-3,-1,3,2,4,28
16:21:12.457217,-3,-2,1,2,0,0,7,-4
16:21:12.465211,0,-1,-1,-2,-2,1,-18,1
16:21:12.480200,1,-1,2,3,2,9,4,6
16:21:12.480200,-5,-3,-3,-2,0,4,-3,-8
16:21:12.495191,19,4,6,2,2,3,3,20
16:21:12.502190,2,1,0,-2,-2,3,20,5
16:21:12.518177,-10,-4,0,-1,-3,-11,-6,-21
16:21:12.525172,-1,-1,-5,-5,-5,-3,3,10
16:21:12.540163,-2,-1,-1,-3,4,6,10,-3
16:21:12.540163,-1,-2,-4,-3,-4,-3,-2,-3
16:21:12.555155,-9,1,0,2,4,9,-15,-9
16:21:12.562167,-13,-11,-8,-7,-10,-18,-19,-17
16:21:12.577143,-1,2,0,-1,-5,-16,-6,-5
16:21:12.585137,10,-1,1,1,4,0,-8,10
16:21:12.601127,4,7,6,3,7,11,10,20
16:21:12.601127,-4,-3,-2,0,5,2,1,-5
16:21:12.615118,9,-2,2,2,2,-3,13,12
16:21:12.623115,-16,-14,-12,-16,-16,-22,-35,-25
16:21:12.645099,-12,2,6,7,3,3,-1,-21
16:21:12.645099,-3,-1,-1,0,-4,-1,-15,-7
16:21:12.660093,3,6,6,3,3,4,4,-4
16:21:12.661088,-1,-2,1,-1,0,-4,-8,-7
16:21:12.675080,-4,-5,-4,-9,-8,-13,-10,-18
16:21:12.682078,-4,-6,-4,-4,-13,-25,-12,-10
16:21:12.698066,-7,-3,0,1,2,2,0,-9
16:21:12.705062,-4,-1,0,1,-2,-5,-5,-5
16:21:12.720055,13,5,0,3,9,3,16,34
16:21:12.728048,-10,-3,2,5,3,9,1,2
16:21:12.742047,-1,0,-2,-1,-5,-7,-6,6
16:21:12.743039,23,1,3,-1,1,-11,1,16
16:21:12.758029,-3,-1,-1,-1,3,13,3,5
16:21:12.765024,-1,-1,-1,2,-2,0,2,4
16:21:12.780018,-5,-5,-5,-5,-10,-23,-25,-21
16:21:12.795006,-13,-6,-3,-2,-1,-3,-25,-17
16:21:12.803002,-7,1,-2,0,5,7,-9,-15
16:21:12.803002,17,0,-4,-5,1,6,14,21
16:21:12.817991,6,1,2,5,0,8,8,9
16:21:12.824988,0,1,3,2,1,-3,-8,-1
16:21:12.839983,0,1,1,1,-1,-1,-6,-4
16:21:12.846979,-4,-3,-2,-4,-6,-9,-5,0
16:21:12.862965,-1,-1,-1,2,2,4,3,-4
16:21:12.862965,-10,-6,-5,-3,2,-3,-13,-11
16:21:12.877955,-6,-8,-12,-8,-14,-17,-11,-5
16:21:12.884954,-5,-2,1,-1,0,-4,-12,-6
16:21:12.900941,3,-2,-2,-2,1,1,11,7
16:21:12.907938,1,3,2,-2,-2,-4,-7,1
16:21:12.922927,1,-2,2,1,2,3,1,-2
16:21:12.922927,3,1,2,-1,0,0,-2,1
16:21:12.937919,5,-1,0,2,1,-1,5,8
16:21:12.944956,-3,6,2,1,4,-1,-1,-7
16:21:12.959921,-3,1,-1,11,7,4,0,-1
16:21:12.967901,-1,-1,-3,-2,1,-1,-1,-1
16:21:12.982890,3,7,21,11,8,6,3,5
16:21:12.982890,1,-2,-15,-20,29,-4,-3,1
16:21:12.997882,1,-1,-18,-60,14,3,-1,-4
16:21:13.004967,5,0,-39,-9,18,3,1,4
16:21:13.020867,-22,-25,-4,6,22,-30,-18,-20
16:21:13.034862,-19,-12,29,50,112,1,-12,-13
16:21:13.042853,17,9,-51,48,-1,9,14,18
16:21:13.042853,-12,-12,18,121,102,12,-8,-10
16:21:13.057845,17,22,22,-4,3,11,6,12
16:21:13.064845,-7,-18,-6,124,-128,-13,-8,-10
16:21:13.080831,-17,-21,-47,-3,-126,-2,-8,-11
16:21:13.087827,3,-1,26,3,-128,-20,-7,-6
16:21:13.102816,12,10,30,-128,-128,9,14,12
16:21:13.102816,3,20,21,-90,-32,19,0,2
16:21:13.117807,15,2,-39,9,-86,28,13,16
16:21:13.124806,17,29,120,-44,-128,19,16,16
16:21:13.140793,-4,-14,-33,-22,-57,-2,-5,-3
16:21:13.147790,12,30,24,-9,-89,19,7,3
16:21:13.162781,13,16,41,-72,127,35,10,9
16:21:13.162781,-16,-25,-4,-128,-128,-34,-14,-11
16:21:13.177772,11,-16,-98,-42,127,29,11,12
16:21:13.184769,3,16,45,45,-29,-24,-6,-2
16:21:13.200756,5,18,43,127,96,43,10,5
16:21:13.207754,11,11,-54,-128,-128,-2,10,10
16:21:13.222744,19,60,127,127,42,22,12,9
16:21:13.229741,-45,-85,-86,-128,-128,-57,-30,-30
16:21:13.237734,22,42,69,-128,43,34,17,16
16:21:13.252725,1,-15,-41,12,34,26,8,8
16:21:13.260720,6,18,28,-120,-57,-11,-1,0
16:21:13.267717,-1,15,49,121,-10,15,-4,-7
16:21:13.282707,3,7,60,59,-128,-19,2,4
16:21:13.282707,-26,-43,-65,11,-23,-24,-12,-10
16:21:13.304700,9,17,27,8,-128,11,0,5
16:21:13.305701,12,0,-49,67,-118,-15,7,10
16:21:13.320684,2,6,-1,87,13,6,3,2
16:21:13.327679,16,28,45,17,8,15,6,7
16:21:13.342670,-4,-16,-26,-8,-7,-1,0,-3
16:21:13.342670,18,35,58,3,-2,3,2,4
16:21:13.365656,-19,-32,-17,-26,-14,-10,-6,-5
16:21:13.366655,7,21,21,-7,-2,6,5,2
16:21:13.380647,-5,-12,-2,22,-15,-20,-2,-3
16:21:13.387642,5,23,8,-29,-10,3,-3,-1
16:21:13.402632,-27,-48,-66,-34,-30,-27,-10,-11
16:21:13.402632,-20,-39,-38,-13,36,-2,-11,-11
16:21:13.424621,7,13,16,21,-3,0,3,4
16:21:13.425618,13,25,11,-7,-7,0,1,3
16:21:13.440610,-17,-29,-29,-29,3,-7,-1,-7
16:21:13.447605,11,37,62,70,40,-2,-5,4
16:21:13.462596,-62,-125,-115,-59,-47,-38,-21,-22
16:21:13.463595,27,66,55,44,9,22,5,6
16:21:13.484584,18,46,75,127,55,20,6,6
16:21:13.485581,-15,-14,9,-29,-21,-16,-9,-12
16:21:13.500571,-13,-52,-81,-40,-4,3,8,4
16:21:13.507567,-31,-70,-72,-23,-13,-21,-8,-9
16:21:13.522559,-38,-63,-77,-8,51,-12,-11,-16
16:21:13.523558,13,29,23,-30,-39,-4,3,3
16:21:13.544549,9,15,8,-73,-85,-5,-2,3
16:21:13.545576,-9,5,21,27,22,17,-1,-4
16:21:13.560537,28,50,11,-12,2,0,4,10
16:21:13.567530,-32,-27,12,-16,-17,-11,-11,-22
16:21:13.582522,-2,10,-8,-8,-7,-3,-1,-4
16:21:13.583520,11,26,30,17,9,9,3,2
16:21:13.604510,-3,-35,-58,-16,1,-7,3,3
16:21:13.605507,9,13,-7,2,16,11,4,1
16:21:13.620497,-34,-58,-47,-29,-17,-4,-10,-14
16:21:13.627494,-2,-8,-21,-43,-18,-11,-2,-2
16:21:13.642484,6,6,2,9,6,2,1,1
16:21:13.643483,3,19,34,-8,-8,-2,-1,1
16:21:13.664474,-3,5,0,10,1,3,-4,-2
16:21:13.665471,-10,-16,-12,-14,-13,-5,-5,-6
16:21:13.680462,-2,-7,-6,20,-2,2,2,1
16:21:13.687456,-13,-23,-11,-13,-11,-7,-7,-5
16:21:13.702452,4,6,14,2,-2,0,2,1
16:21:13.710444,-14,-39,-57,-30,-13,-6,-2,-1
16:21:13.724437,0,-2,0,23,-12,-3,-1,0
16:21:13.725434,-11,-2,15,1,-1,2,-4,-4
16:21:13.740424,-5,-12,-6,7,5,-2,-2,-3
16:21:13.747451,-8,-7,6,-1,5,-1,0,1
16:21:13.762456,-16,-43,-59,-14,-14,-10,-3,-4
16:21:13.770407,9,26,41,12,7,4,-1,1
16:21:13.785397,-8,-16,-22,-15,-4,-1,-2,-5
16:21:13.785397,-2,-4,-10,0,-8,-12,0,1
16:21:13.800388,17,33,15,0,12,9,4,3
16:21:13.807386,4,17,37,16,8,3,-2,-3
16:21:13.822455,-4,-14,-23,-12,-2,8,-1,-1
16:21:13.837364,-10,-21,-20,-17,-11,-10,-6,-4
16:21:13.844365,15,44,54,21,6,8,3,4
16:21:13.845361,-5,-7,-2,-3,2,-1,0,-1
16:21:13.860351,6,5,4,8,9,5,3,3
16:21:13.867350,2,6,2,1,1,1,0,1
16:21:13.882358,7,15,13,3,-2,2,0,3
16:21:13.890333,-6,-10,-15,-4,1,-4,1,0
16:21:13.905336,3,4,6,2,1,1,-2,-1
16:21:13.905336,5,13,14,8,7,3,3,2
16:21:13.920316,-3,-6,-4,-1,-2,3,-1,-1
16:21:13.927312,-1,8,11,8,6,5,-3,-3
16:21:13.942303,-18,-28,-36,-23,-11,-12,-6,-11
16:21:13.950296,-1,5,4,-1,-1,0,-1,1
16:21:13.965287,0,0,0,3,2,1,1,0
16:21:13.965287,0,6,12,-5,1,2,-1,-3
16:21:13.980279,-4,-6,0,-4,-4,-1,0,-1
16:21:13.987293,-2,1,2,-2,1,-2,0,-1
16:21:14.002267,0,8,4,3,-1,-3,-3,-3
16:21:14.010258,1,0,-3,-3,-3,-2,-3,0
16:21:14.025250,1,0,1,-2,-2,-2,3,2
16:21:14.025250,-1,3,9,3,-1,-4,-4,1
16:21:14.040239,-6,-18,-25,-15,-7,-6,-1,-3
16:21:14.047238,0,3,2,2,-3,1,-2,-3
16:21:14.062230,-3,-9,-16,-9,-4,0,-2,-2
16:21:14.070221,3,3,6,2,2,1,-1,-2
16:21:14.085213,-2,-2,0,0,-6,-2,-2,-6
16:21:14.086212,-5,-7,-3,3,-1,-5,-1,-2
16:21:14.100202,5,-1,-7,-3,-1,-1,-1,2
16:21:14.115194,-1,1,0,0,-4,1,2,0
16:21:14.122192,-3,-5,-1,-3,-5,-4,-4,-4
16:21:14.130184,10,3,3,4,3,0,2,4
16:21:14.145176,-15,-3,4,3,4,3,0,6
16:21:14.145176,4,-2,-1,3,1,0,-2,-1
16:21:14.160167,1,7,6,1,10,7,4,16
16:21:14.167164,-34,-15,-10,-11,-9,-5,-23,11
16:21:14.182161,23,13,10,5,5,11,22,7
16:21:14.190147,-50,2,-2,-3,1,-26,-6,-31
16:21:14.205139,-20,-18,-12,-14,-20,-11,-11,20
16:21:14.205139,43,18,6,8,3,11,17,-42
16:21:14.220192,-3,-13,-14,-14,-15,-32,-12,8
16:21:14.227129,-44,-9,-1,-3,-1,-4,-17,-10
16:21:14.242118,0,7,5,5,8,18,0,-23
16:21:14.250110,14,-7,7,4,2,-12,-24,20
16:21:14.265102,0,-6,0,-1,-2,11,13,-33
16:21:14.273100,-7,0,9,7,7,16,70,-29
16:21:14.280095,15,6,2,1,-5,-20,-24,11
16:21:14.288091,83,17,6,7,8,16,27,-26
16:21:14.303082,-35,-12,3,2,4,-14,-6,12
16:21:14.311077,-2,-2,-1,1,3,21,-19,91
16:21:14.325067,25,14,5,5,-1,-1,6,-36
16:21:14.326064,-54,-26,-6,-5,-6,-17,9,18
16:21:14.341058,24,15,8,10,11,8,1,-10
16:21:14.348054,-60,-1,15,11,28,9,-25,-4
16:21:14.363044,27,-5,-11,-7,-17,-6,-16,13
16:21:14.371040,16,15,14,12,12,27,-40,4
16:21:14.385030,14,-2,-9,-5,-12,39,31,25
16:21:14.386027,-27,-2,5,7,13,70,55,-76
16:21:14.401022,16,6,-2,-6,-10,-39,38,61
16:21:14.408014,-58,-28,1,4,20,-7,-7,83
16:21:14.423008,-4,-13,-7,-14,-11,7,-12,29
16:21:14.430003,-11,-1,9,7,-15,27,2,-63
16:21:14.444990,-10,10,13,18,15,4,25,101
16:21:14.445990,-84,-42,23,3,28,29,-13,-57
16:21:14.460983,14,9,-74,-33,-14,-16,0,1
16:21:14.467980,-5,-12,-23,9,10,-1,-2,0
16:21:14.482970,1,15,5,-89,-12,24,15,-14
16:21:14.490965,-2,-44,-35,-19,50,-92,-69,35
16:21:14.504954,60,16,-14,-56,39,127,127,48
16:21:14.505956,25,2,-10,-32,4,-4,53,35
16:21:14.520949,-13,26,38,32,44,19,-9,-49
16:21:14.527943,14,-17,-19,-2,-2,-2,-12,-76
16:21:14.542934,-30,-9,9,-12,-2,-31,-46,-55
16:21:14.550926,-3,-44,-32,-9,-36,-63,-25,-1
16:21:14.565918,-32,-21,-10,-5,-1,-8,-31,-35
16:21:14.565918,-27,-17,-10,-8,-17,-26,8,-14
16:21:14.587906,114,-1,8,8,13,-12,23,59
16:21:14.588907,80,30,3,-9,-8,-17,5,127
16:21:14.602897,-12,3,4,4,6,11,-4,-25
16:21:14.610890,-82,-4,-3,1,-2,9,-62,-114
16:21:14.625882,25,-15,-32,-38,-29,-36,-13,32
16:21:14.632878,-9,5,8,7,8,12,1,-10
16:21:14.647869,21,-7,-1,-5,-2,-6,-8,-6
16:21:14.648865,95,13,15,13,22,42,54,75
16:21:14.670852,-42,-5,7,10,9,-3,-4,-6
16:21:14.670852,-28,-3,-2,0,-2,-1,-10,-21
16:21:14.685846,-27,3,0,1,2,-5,-10,-33
16:21:14.692841,-14,2,-9,-17,-38,-79,-61,-11
16:21:14.707832,1,0,-2,-2,-4,-11,-11,-2
16:21:14.708832,8,4,7,8,16,5,30,11
16:21:14.722823,-12,0,1,-5,-20,-25,-22,-9
16:21:14.730818,4,4,1,2,0,4,21,8
16:21:14.745809,13,-14,-7,-3,-2,-8,-5,16
16:21:14.752804,25,6,-6,-8,15,40,60,97
16:21:14.767795,-10,6,5,9,2,8,6,-1
16:21:14.768794,1,2,1,2,7,9,-7,-23
16:21:14.782786,3,1,-4,-6,-11,-16,-6,2
16:21:14.790781,-3,9,1,-4,-5,8,-30,-30
16:21:14.805769,19,6,0,-1,9,25,64,67
16:21:14.812765,16,1,-8,-12,-19,-22,16,30
16:21:14.827758,-10,-5,-5,-10,-5,2,-5,-18
16:21:14.828758,40,1,-7,-8,-16,-26,-6,5
16:21:14.850743,-4,2,4,2,2,10,9,7
16:21:14.851740,-7,-2,-3,-3,-1,-1,-1,-6
16:21:14.865736,-4,-1,-1,-4,-4,-2,-2,-2
16:21:14.872730,3,-5,-4,-3,-4,-4,-13,-12
16:21:14.887721,19,10,7,4,2,-4,1,23
16:21:14.888720,49,14,6,1,2,1,59,127
16:21:14.902711,15,-5,11,11,11,10,1,18
16:21:14.910705,-4,1,0,0,2,10,11,4
16:21:14.925698,0,4,1,1,5,17,8,2
16:21:14.932693,-3,-6,-3,-7,-7,-12,-10,-13
16:21:14.947684,-6,-5,-1,-5,4,-11,11,0
16:21:14.948683,0,-2,-2,5,4,8,23,24
16:21:14.962674,-15,-15,-12,-12,-9,-6,-26,-36
16:21:14.977665,-25,-8,-6,-4,-14,-20,-4,-10
16:21:14.985661,-37,-20,-8,-5,-6,-10,1,-4
16:21:14.992654,-1,4,3,2,-1,-8,-2,-2
16:21:15.007647,0,2,2,4,4,5,-1,-1
16:21:15.008647,-6,-4,-8,-9,-15,-25,-47,-13
16:21:15.022636,-6,-3,-3,1,-6,-9,-15,-11
16:21:15.038628,14,-30,-20,-21,-21,-29,-50,-23
16:21:15.045624,-17,1,3,5,2,9,-3,1
16:21:15.053620,-16,-8,-8,-9,-15,-22,-28,-30
16:21:15.067607,5,2,2,0,3,-5,-3,0
16:21:15.068610,-6,-4,-1,-1,-2,-3,-4,1
16:21:15.082600,21,4,-2,-3,-3,3,8,29
16:21:15.097589,-9,-3,0,3,4,13,17,-5
16:21:15.105587,-5,2,5,7,9,-4,-20,-15
16:21:15.112580,26,4,6,7,9,23,25,42
16:21:15.127574,13,-7,-6,-6,-8,-14,22,7
16:21:15.128572,0,-1,0,0,-1,-3,5,7
16:21:15.143564,-1,0,1,1,1,0,-1,0
16:21:15.150559,-3,-2,1,-2,0,-4,-1,2
16:21:15.165550,-5,-3,-2,-2,-2,-11,-9,-8
16:21:15.173543,-2,1,1,-1,-2,1,3,-3
16:21:15.187535,16,-13,-19,-16,-5,-1,15,31
16:21:15.188533,4,2,3,-1,-3,-8,-7,17
16:21:15.203525,1,3,7,5,6,4,-1,0
16:21:15.218514,2,0,-1,-2,0,1,12,8
16:21:15.225514,-5,-5,-4,-4,-1,2,-10,-8
16:21:15.233506,-3,-3,-2,3,1,-5,-10,-6
16:21:15.247497,-2,-5,-3,0,-5,0,-6,-3
16:21:15.248499,-10,-1,1,1,-2,7,20,-14
16:21:15.263489,15,-6,-10,-11,-15,-8,-6,-19
16:21:15.270486,2,3,0,4,4,17,-1,2
16:21:15.285477,-4,1,3,5,4,5,0,-14
16:21:15.293472,0,0,-2,1,1,5,1,0
16:21:15.307461,-2,0,0,-1,2,-1,0,-3
16:21:15.308459,0,-4,-7,-4,-1,0,-1,-1
16:21:15.323450,-3,-2,-4,-4,1,-6,-11,-5
16:21:15.330449,0,0,3,4,2,4,3,-5
16:21:15.345440,18,-5,-3,-5,-12,-20,-13,5
16:21:15.353435,-13,4,7,9,9,24,5,-22
16:21:15.367426,-6,-4,-3,-7,-5,-2,5,-4
16:21:15.368424,-5,-4,0,1,-1,-4,-1,-7
16:21:15.383413,-2,-2,1,-1,2,1,-7,-3
16:21:15.390412,-2,-3,-1,-4,-1,-2,-5,0
16:21:15.405403,-2,-2,1,-2,1,0,2,1
16:21:15.412400,-12,-3,0,-2,-4,-3,-4,-11
16:21:15.428388,-4,2,1,3,2,-6,-12,-6
16:21:15.428388,12,7,-1,-1,0,9,0,-2
16:21:15.443376,4,0,-2,0,-4,-9,6,1
16:21:15.450375,-9,-5,-2,-1,5,-2,1,-5
16:21:15.465366,3,2,1,-1,3,2,14,10
16:21:15.473358,-6,-4,-1,-2,-4,-2,-8,-12
16:21:15.488348,-8,-1,-2,-2,-4,-4,6,-7
16:21:15.488348,-14,-17,-14,-19,-22,-37,-27,-14
16:21:15.503342,2,-3,-5,-2,-1,-1,-3,-3
16:21:15.510338,-18,-6,0,-2,-2,-4,-11,-9
16:21:15.525327,-4,1,0,0,0,0,-2,-10
16:21:15.533323,-3,-3,-2,-1,-1,-5,-6,-9
16:21:15.548315,3,-9,-5,-7,-5,-10,-16,-12
16:21:15.555310,-2,-4,-2,-4,-3,-3,-3,-7
16:21:15.570301,-6,-4,-4,-7,-4,-8,-11,-13
16:21:15.571298,-10,-4,-5,-5,-6,-2,0,-11
16:21:15.585292,-6,-1,-1,-2,-2,-12,-6,-4
16:21:15.593286,-9,0,-3,-4,-9,-13,18,-24
16:21:15.608275,-1,2,1,3,10,10,-1,-2
16:21:15.615273,3,0,1,-1,-2,-4,-8,-14
16:21:15.630261,5,-1,-3,-2,-3,9,21,20
16:21:15.631263,-7,-6,-10,-9,-5,-1,-17,-10
16:21:15.645254,18,9,9,9,9,9,6,9
16:21:15.653250,0,-2,1,-4,0,3,-19,5
16:21:15.668241,-2,-9,-9,-7,-11,-16,-7,-6
16:21:15.675235,-1,1,1,0,1,1,7,2
16:21:15.690227,4,4,-2,1,3,-1,-3,1
16:21:15.691227,7,-3,-5,-4,-3,-4,-2,21
16:21:15.705215,-1,1,3,1,0,0,-7,0
16:21:15.713210,-7,-1,-3,0,-5,-8,-4,-3
16:21:15.728201,-15,-14,-17,-14,-25,-39,-34,-33
16:21:15.735196,-5,1,5,4,1,0,3,-1
16:21:15.750190,-8,-3,-2,2,2,10,10,-4
16:21:15.751190,-2,1,1,-1,-1,-2,-1,-5
16:21:15.765179,-2,-3,2,-3,2,-5,-10,-5
16:21:15.773176,-8,0,2,3,0,2,7,-11
16:21:15.788166,-1,-4,-6,-8,-2,7,2,-3
16:21:15.795160,9,3,-1,1,0,-5,21,28
16:21:15.810152,-16,-5,4,7,2,1,4,-5
16:21:15.811153,-6,-3,1,0,-1,3,-9,-18
16:21:15.833136,-4,1,1,-1,-1,-15,5,2
16:21:15.833136,-1,-5,-1,0,0,2,-1,-1
16:21:15.848130,-8,-1,-3,-1,-3,-5,-6,-21
16:21:15.855123,-27,-13,-7,-10,-12,-20,2,-22
16:21:15.870114,-17,-5,0,2,-5,-16,-33,-37
16:21:15.871116,-4,-3,0,-1,-5,-5,-7,-11
16:21:15.886106,3,2,2,2,-1,4,-1,-3
16:21:15.893102,-9,-5,-1,-3,-5,-7,-4,-9
16:21:15.908093,-9,-7,-1,-1,-1,-4,-5,-6
16:21:15.915086,-2,0,-3,-1,-3,-2,0,-4
16:21:15.938074,-1,-9,-9,-9,-5,-2,-8,12
16:21:15.939074,-9,-9,-4,-2,-2,3,4,-14
16:21:15.953066,-1,5,2,2,5,-2,1,-2
16:21:15.954062,-4,-1,-1,-1,-1,-4,-2,-9
16:21:15.975052,-3,-3,-5,-8,-7,-2,-8,-5
16:21:15.976051,-4,-4,0,0,-2,-3,0,-3
16:21:15.991040,-2,-1,-2,0,0,-3,-3,-2
16:21:15.998035,8,-3,-1,0,1,3,28,19
16:21:16.006033,-2,-1,0,1,1,1,-20,-13
16:21:16.013029,-4,-4,0,-3,-8,-9,-10,-9
16:21:16.028020,0,1,1,2,-1,-7,-12,-8
16:21:16.036011,-7,0,1,2,-2,0,-5,-6
16:21:16.051002,1,4,2,2,2,-2,8,-1
16:21:16.057998,4,1,2,1,-2,3,-1,5
16:21:16.065996,-8,1,-2,-2,-4,0,-12,-10
16:21:16.072992,-2,-2,-1,-4,-8,-13,-12,-4
16:21:16.087983,3,7,7,5,6,8,-2,-2
16:21:16.095975,-3,1,4,4,0,-3,4,-7
16:21:16.117964,-5,-3,-7,-2,-9,-22,5,-11
16:21:16.118960,-6,1,3,1,-5,-5,-12,-12
16:21:16.125959,-5,-1,-1,-1,0,0,-3,-4
16:21:16.132955,-3,-2,-1,-1,2,2,0,-4
16:21:16.147946,2,1,1,0,-2,2,2,2
16:21:16.155937,12,4,4,4,3,7,13,5
16:21:16.170929,-1,3,2,6,4,12,19,0
16:21:16.170929,8,-4,1,3,0,-9,1,-1
16:21:16.185919,12,2,1,2,6,18,17,18
16:21:16.192918,5,-2,-1,0,7,22,20,-17
16:21:16.207909,0,3,-1,4,1,3,-7,-2
16:21:16.215901,-3,-2,2,0,-1,0,-1,3
16:21:16.230891,2,-1,-1,3,1,-5,-1,1
16:21:16.230891,-2,0,1,3,2,4,12,7
16:21:16.252881,0,3,4,0,4,1,-9,-13
16:21:16.253877,-11,-5,-5,-4,-6,-2,-6,-11
16:21:16.267872,-8,-9,-4,-4,-12,-6,-3,-1
16:21:16.275867,-3,0,0,-3,0,1,0,-5
16:21:16.290857,13,3,1,2,3,0,4,18
16:21:16.290857,-2,-3,-1,-1,0,-1,0,-3
16:21:16.305845,9,4,-2,0,-1,-1,2,-9
16:21:16.312844,-8,-17,-18,-20,-20,-17,-31,-24
16:21:16.327835,-2,-2,-2,-2,-7,-12,-14,-30
16:21:16.335830,1,0,0,0,0,7,5,13
16:21:16.357816,4,0,1,1,1,5,4,6
16:21:16.358813,6,0,0,1,1,-2,19,23
16:21:16.365809,0,1,-2,2,9,5,-5,-2
16:21:16.372804,-6,-4,-3,-1,1,6,-3,-5
16:21:16.387797,-13,-7,1,-3,-2,-5,5,-13
16:21:16.395790,2,2,-2,-4,1,11,21,12
16:21:16.410781,15,8,6,7,16,27,23,24
16:21:16.410781,12,5,6,5,3,5,7,13
16:21:16.425772,-4,-1,-3,0,-1,0,6,-1
16:21:16.432769,-4,-3,1,-1,1,-4,-1,-4
16:21:16.447761,0,0,-1,-1,1,1,1,-3
16:21:16.455756,-3,-3,-2,-1,-2,-9,-16,-15
16:21:16.470745,11,5,-1,1,-2,7,23,39
16:21:16.470745,12,11,9,8,9,19,15,14
16:21:16.485738,5,7,2,4,8,16,33,35
16:21:16.492732,1,-4,2,-2,-4,-11,2,8
16:21:16.507721,-2,2,0,-1,0,-8,-10,-3
16:21:16.515719,-2,0,-3,-1,-1,1,-1,1
16:21:16.530710,16,3,2,2,2,6,7,14
16:21:16.537702,-3,1,-3,-4,-3,-3,-13,-6
16:21:16.552696,-21,-13,-10,-10,-9,-16,-24,-13
16:21:16.560692,-16,-5,-8,-6,-10,-10,-10,-20
16:21:16.567684,8,5,2,3,0,4,-2,7
16:21:16.575682,13,5,0,0,-2,7,-2,-7
16:21:16.590673,1,-1,2,0,4,3,1,-6
16:21:16.597668,-1,1,0,-4,0,-1,-14,-4
16:21:16.612658,1,-1,0,0,1,4,4,7
16:21:16.613659,-6,1,-1,-1,-3,-4,-6,-2
16:21:16.627648,-4,5,0,2,2,2,-8,0
16:21:16.635645,1,-5,-6,-3,-4,-15,-9,8
16:21:16.650635,0,-2,-1,-4,-4,-5,-5,-4
16:21:16.657632,-1,3,4,4,8,4,6,-2
16:21:16.672622,2,-1,-4,-4,-5,-3,0,-4
16:21:16.673621,-2,-3,-2,-2,-1,-4,-4,-6
16:21:16.688609,-5,1,2,4,6,18,24,23
16:21:16.695608,3,-3,-1,-2,-7,-6,-17,-5
16:21:16.710599,8,5,1,2,-2,-3,14,11
16:21:16.718591,-4,-16,-19,-14,-12,-17,-32,-5
16:21:16.732584,-1,3,6,4,3,8,9,-3
16:21:16.733583,-4,-3,1,0,1,0,-1,3
16:21:16.747574,1,-3,1,-1,-1,-2,-3,-2
16:21:16.755572,-7,-1,-6,-5,-6,-10,-9,-3
16:21:16.778554,2,3,1,-1,1,7,20,7
16:21:16.778554,14,9,3,2,5,13,35,34
16:21:16.792547,-11,-19,-21,-20,-21,-25,-32,-18
16:21:16.793547,8,7,0,3,-4,-12,1,-3
16:21:16.808536,12,1,-5,-4,-5,-1,3,13
16:21:16.815535,-2,3,4,4,5,2,-2,-7
16:21:16.830525,-1,1,1,-1,0,0,-5,-2
16:21:16.838518,0,0,-1,0,-1,-3,-1,-1
16:21:16.853511,5,3,3,0,1,-2,6,-4
16:21:16.853511,7,4,-2,0,-3,-6,2,23
16:21:16.867499,-13,1,3,2,5,-1,-3,-4
16:21:16.875498,-9,-5,-2,-2,-5,-10,-7,-17
16:21:16.890489,-3,0,3,1,4,-1,-10,-14
16:21:16.897484,0,-1,-1,1,-2,-8,-12,-2
16:21:16.912472,2,-3,-5,-1,-2,-3,-5,1
16:21:16.920470,10,1,-6,-1,-3,-1,-3,-2
16:21:16.928463,-4,3,0,3,9,10,9,6
16:21:16.935461,-10,-4,-4,-6,-1,4,-23,-4
16:21:16.950449,6,4,1,6,7,20,34,35
16:21:16.958445,7,3,5,4,3,3,6,3
16:21:16.973437,1,0,2,2,3,5,5,4
16:21:16.973437,-3,-2,1,-3,-1,3,8,5
16:21:16.988425,-6,-6,-1,-4,-4,-6,-5,-3
16:21:16.995424,1,-4,0,0,1,0,-11,-7
16:21:17.010415,-2,0,6,1,6,-4,-1,-3
16:21:17.018410,0,-3,-6,-5,-5,-10,12,15
16:21:17.033397,-4,1,-2,-3,0,0,-12,-18
16:21:17.033397,-11,1,0,-1,2,2,-6,-3
16:21:17.055387,2,0,-2,-1,-3,-2,-1,-1
16:21:17.056386,-1,-1,2,0,1,-3,-2,-2
16:21:17.070378,2,0,3,2,2,13,-17,-3
16:21:17.085369,2,0,-2,-1,-1,0,-10,3
16:21:17.093361,0,7,10,9,14,12,8,19
16:21:17.100356,-8,1,5,5,-2,-7,-18,-14
16:21:17.108355,-1,-3,-1,-3,-2,4,-5,-2
16:21:17.115350,29,5,5,3,4,3,7,17
16:21:17.130341,-2,-1,2,0,-3,-7,0,-4
16:21:17.138333,-10,-6,-2,-2,1,1,2,4
16:21:17.153324,3,8,5,5,2,2,16,7
16:21:17.153324,13,5,2,1,5,7,13,22
16:21:17.168318,5,4,5,3,4,12,27,11
16:21:17.175313,7,0,-1,0,-2,-5,5,6
16:21:17.190302,-1,3,3,0,-1,0,2,10
16:21:17.198299,-3,-1,-4,-2,-2,-4,-1,2
16:21:17.213288,-6,-5,-2,-3,-9,-26,-8,-7
16:21:17.213288,-3,0,4,1,0,4,2,1
16:21:17.228281,2,1,2,6,10,17,14,21
16:21:17.235275,9,13,3,6,5,15,21,7
16:21:17.250264,-16,-14,-13,-11,-14,-20,-34,-27
16:21:17.258261,-2,-4,-3,-5,-7,-22,-22,0
16:21:17.273250,13,3,1,5,8,10,22,19
16:21:17.273250,-1,-1,3,-2,1,-1,-3,-6
16:21:17.288240,-2,-1,-1,0,0,2,-4,-1
16:21:17.295239,3,1,2,0,-2,1,17,6
16:21:17.310228,-1,2,-2,1,0,5,-13,-11
16:21:17.318226,11,13,5,4,0,6,23,12
16:21:17.333213,8,-2,-1,0,-5,-13,-4,-9
16:21:17.333213,-1,1,-3,4,0,-1,11,0
16:21:17.348207,-2,0,2,1,-2,2,-2,-5
16:21:17.355199,-4,0,2,-1,1,-1,-3,0
16:21:17.371193,0,-1,-1,0,-2,-2,-2,-1
16:21:17.378188,-5,-8,-3,-3,-4,-3,0,-2
16:21:17.393178,2,4,1,2,3,14,21,5
16:21:17.393178,-3,6,4,4,5,19,6,5
16:21:17.408170,2,-4,-3,-3,0,1,-4,6
16:21:17.415163,1,-7,-6,-4,-5,-1,-6,-13
16:21:17.431155,-2,-2,0,2,2,6,1,-6
16:21:17.438151,-3,-2,0,-2,-2,-4,-4,-4
16:21:17.453142,3,1,-2,-1,3,1,-6,-1
16:21:17.461138,2,1,-2,-1,-3,-1,1,1
16:21:17.475129,11,-8,-9,-9,-12,-9,-5,5
16:21:17.476128,23,5,-4,-4,-3,-20,-6,15
16:21:17.490117,11,4,6,8,1,0,14,16
16:21:17.498115,0,3,4,3,2,1,18,6
16:21:17.513105,-2,0,1,-4,-2,1,-2,-7
16:21:17.521100,-1,-2,0,-3,0,4,9,-2
16:21:17.535092,-6,-4,-4,0,-1,0,-2,-4
16:21:17.536089,15,-3,-2,-4,0,7,22,39
16:21:17.551079,-8,-4,0,2,-2,-5,-7,-13
16:21:17.558075,7,-3,-7,-8,0,2,2,23
16:21:17.573068,-14,-7,-7,-6,-7,-6,-5,-12
16:21:17.580066,-2,-4,-5,-3,-3,-3,-13,-2
16:21:17.595053,1,4,1,0,0,7,12,8
16:21:17.610043,-3,-4,2,-1,0,-1,-2,-5
16:21:17.611045,1,4,1,-2,0,0,6,5
16:21:17.618041,10,1,0,-1,-3,-1,-1,6
16:21:17.633031,3,0,-1,-1,2,0,6,0
16:21:17.641023,0,-2,-2,1,0,5,-10,-1
16:21:17.655015,5,-3,-3,-4,-3,2,2,17
16:21:17.656017,-10,-3,1,0,-1,2,-6,-19
16:21:17.671005,-8,-5,-9,-6,-6,-8,-13,-11
16:21:17.678004,3,-1,-1,-3,-4,-6,-8,-2
16:21:17.692995,-1,-1,0,1,-1,-7,-9,-3
16:21:17.700986,1,-1,-2,-1,-2,4,16,11
16:21:17.715978,0,2,-1,0,1,10,-3,4
16:21:17.715978,1,-3,-4,-3,-3,6,7,14
16:21:17.730971,0,-3,-3,1,-1,8,-7,-2
16:21:17.737967,-9,-4,-3,-3,-1,-1,7,-6
16:21:17.752958,-8,-5,-2,1,2,13,7,-6
16:21:17.760953,-16,-13,-13,-11,-3,-3,-10,-22
16:21:17.775943,2,-1,2,-3,1,-1,4,4
16:21:17.775943,-1,1,1,0,-2,-2,-3,-2
16:21:17.790934,1,-3,-5,-2,0,0,2,3
16:21:17.797930,17,6,2,2,-3,-1,-1,7
16:21:17.820916,-4,2,0,1,3,8,2,-8
16:21:17.820916,-3,-2,-3,-4,1,3,-1,-7
16:21:17.834907,35,11,8,9,9,10,9,32
16:21:17.835903,6,-5,-7,-4,-6,3,21,16
16:21:17.850897,-4,-1,-1,-2,1,-2,-8,-6
16:21:17.857893,-2,-3,1,-1,-2,-4,-2,-5
16:21:17.872884,0,-1,0,-2,0,-3,-2,3
16:21:17.880880,1,-2,-1,-1,0,0,1,2
16:21:17.895869,-14,0,1,4,-1,2,4,-7
16:21:17.895869,10,2,-6,-5,-6,1,13,19
16:21:17.910858,-9,-2,-3,0,-1,9,-16,-16
16:21:17.917856,-1,1,2,3,0,3,5,4
16:21:17.932847,-1,4,2,5,6,7,-4,-2
16:21:17.940842,-2,-3,-1,-4,0,-3,-2,-3
16:21:17.955830,1,0,-1,-2,-4,-1,2,-1
16:21:17.955830,1,-1,-1,-1,-1,4,-1,0
16:21:17.970824,6,2,2,1,0,5,10,9
16:21:17.977819,2,8,7,5,2,1,10,7
16:21:17.992810,-23,-5,-4,-4,-5,1,1,-15
16:21:18.000805,10,4,4,4,2,-7,-9,9
16:21:18.015793,-6,-1,0,0,1,-1,0,-8
16:21:18.015793,-19,-7,-3,-2,-3,0,-4,4
16:21:18.030786,-3,-3,-1,-2,-2,-1,-2,0
16:21:18.037781,-1,-1,-1,-2,1,4,-7,0
16:21:18.060766,-1,2,-1,2,3,7,4,-1
16:21:18.060766,-17,-2,-4,-3,-14,-21,-10,-12
16:21:18.075756,6,5,9,6,11,30,34,6
16:21:18.075756,-9,-3,0,1,-3,-4,-9,-9
16:21:18.090750,11,7,5,3,5,10,10,14
16:21:18.097745,-6,-2,-3,-4,-7,-3,-3,-4
16:21:18.112735,-1,-2,0,0,-1,-1,-2,-2
16:21:18.120731,-7,0,-4,-3,-4,-7,-20,-12
16:21:18.135722,1,1,2,-1,0,3,-7,-4
16:21:18.142714,-7,-1,1,0,-3,-12,-19,-23
16:21:18.150710,-4,-7,-8,-4,-13,-22,-17,-20
16:21:18.157709,-3,-2,1,-4,-2,-5,-5,-6
16:21:18.172696,0,-3,-2,-4,-1,-3,-3,-4
16:21:18.180694,-5,-2,-3,-2,-4,0,-8,-10
16:21:18.195682,-2,1,-3,-1,1,1,-1,-3
16:21:18.195682,-1,-1,-3,0,4,4,5,-6
16:21:18.210676,3,-2,-5,-1,1,1,-6,6
16:21:18.218667,-14,-4,0,0,-1,-1,-6,-16
16:21:18.232660,5,3,-3,3,6,0,24,12
16:21:18.240657,-8,-9,-6,-8,-14,-30,-16,-14
16:21:18.255645,-1,1,1,1,2,-3,-5,-2
16:21:18.255645,-2,-1,1,0,1,-2,-4,-5
16:21:18.270639,-1,-1,1,0,3,1,7,1
16:21:18.277632,-4,-2,-3,-5,-6,-4,-5,-5
16:21:18.293623,-2,-1,-5,-2,0,-1,-1,-5
16:21:18.300620,1,0,-3,-3,2,2,-1,0
16:21:18.315611,5,4,1,1,4,-3,-3,5
16:21:18.315611,-10,-2,0,2,-1,-1,-5,-9
16:21:18.330602,-2,-1,0,1,-1,-1,0,3
16:21:18.338596,-8,-6,-2,-1,2,-2,-7,-6
16:21:18.353588,-5,0,-1,-1,3,3,-4,-3
16:21:18.368578,0,3,2,-1,-3,0,-7,-3
16:21:18.375574,-1,0,-1,1,0,4,-5,3
16:21:18.375574,-3,-2,1,0,0,-2,10,10
16:21:18.397558,-8,0,-3,-2,-2,5,1,-5
16:21:18.398560,1,-3,-5,-5,-7,-12,-3,1
16:21:18.413551,-12,3,-1,0,1,6,10,-1
16:21:18.420547,-3,-5,-7,-7,-3,-1,-5,0
16:21:18.442531,-6,1,2,-1,-10,-13,-14,-17
16:21:18.443532,-7,-2,-1,0,2,2,-6,-2
16:21:18.457521,-5,-3,-5,-5,-9,-14,-10,-11
16:21:18.458521,-3,-1,-1,-4,-1,2,-3,0
16:21:18.473513,-4,-4,0,-4,-2,1,-2,-6
16:21:18.480510,-10,-5,-6,-6,-5,-8,-7,-6
16:21:18.495501,-1,0,-1,-4,-4,-2,-3,-7
16:21:18.503492,-12,-3,0,-1,-4,-8,-6,-11
16:21:18.525482,-7,-2,-1,0,-8,-15,-10,-5
16:21:18.526479,-7,-5,-5,-4,1,3,13,12
16:21:18.532479,6,1,3,0,2,9,12,12
16:21:18.548468,0,0,2,-1,-1,-7,-14,0
16:21:18.555460,5,0,-2,-3,0,7,9,17
16:21:18.562459,4,-2,-3,-4,-2,-4,-8,0
16:21:18.578447,-7,1,2,2,3,1,-4,-12
16:21:18.578447,16,-5,-4,-2,0,3,16,9
16:21:18.593437,20,12,6,6,3,5,27,44
16:21:18.600436,-4,-3,-3,-1,-6,-6,-7,-12
16:21:18.615427,1,-3,-1,0,2,0,-2,-1
16:21:18.623422,16,4,2,0,3,4,8,15
16:21:18.638410,-2,-3,-2,3,-1,-12,-27,-10
16:21:18.638410,-5,-3,0,-4,-3,6,1,0
16:21:18.653401,-3,4,3,5,0,-1,-7,-19
16:21:18.660399,-2,-6,-4,-1,-3,-7,-11,-2
16:21:18.675390,0,-3,3,2,2,4,2,4
16:21:18.683382,-8,-9,-10,-7,-12,-16,-2,-7
16:21:18.698372,0,-2,-3,-4,0,-12,0,0
16:21:18.698372,6,0,1,0,4,8,-6,12
16:21:18.713363,10,4,4,0,3,4,11,17
16:21:18.720361,-11,-4,-2,-1,-4,-14,-6,-12
16:21:18.735353,3,-3,-3,-1,-3,-1,-6,-3
16:21:18.743348,2,2,4,4,2,5,2,-7
16:21:18.758339,5,-3,0,0,-3,2,-1,-2
16:21:18.758339,0,1,1,3,1,1,0,-3
16:21:18.773326,10,2,-8,-7,-2,-4,-14,19
16:21:18.780324,3,3,3,2,4,3,10,12
16:21:18.795316,-10,-1,3,0,-1,-6,-2,-6
16:21:18.803310,-3,3,2,1,0,3,-2,-4
16:21:18.818299,0,3,0,3,2,-1,-2,-6
16:21:18.818299,-7,-3,-3,-3,-4,-8,-22,-9
16:21:18.833292,4,3,0,1,0,3,2,0
16:21:18.840285,-1,-7,-7,-8,-3,-6,-15,0
16:21:18.855279,9,0,2,1,-1,-1,0,3
16:21:18.863271,10,1,-7,-5,1,5,5,11
16:21:18.878262,-7,-1,-1,-1,-1,-5,-6,-11
16:21:18.878262,-2,0,1,1,6,10,2,-2
16:21:18.893253,-4,1,-1,0,0,3,-2,-6
16:21:18.900249,-6,2,0,-1,-1,1,-4,-8
16:21:18.915241,-1,0,1,0,-1,2,1,1
16:21:18.923237,-5,-3,0,0,-3,-3,-1,0
16:21:18.938230,-4,1,0,2,3,4,-3,-13
16:21:18.938230,8,8,11,9,14,29,24,37
16:21:18.953219,-1,1,0,-1,-1,1,6,2
16:21:18.960212,1,1,1,-1,-2,-1,-4,-4
16:21:18.975204,-1,1,-3,2,1,1,-3,-5
16:21:18.983197,-6,1,-4,1,-2,-2,-6,-2
16:21:18.998191,0,-5,-3,1,2,6,-1,-4
16:21:18.999188,1,0,-2,1,0,-6,-7,-9
16:21:19.013182,5,0,0,-1,2,7,17,9
16:21:19.021174,17,3,0,0,2,0,-12,-4
16:21:19.035166,7,3,2,1,6,14,0,7
16:21:19.043163,-1,0,3,0,1,3,-3,-3
16:21:19.058154,-6,-3,-3,-1,2,3,7,0
16:21:19.058154,2,2,0,1,2,1,1,4
16:21:19.073145,-1,-2,0,0,-2,1,4,1
16:21:19.080141,1,-1,-2,-2,-4,-9,-2,-7
16:21:19.095129,-1,-6,-5,-5,-2,4,-1,-12
16:21:19.103127,-12,1,5,4,2,3,-1,-19
16:21:19.118117,-14,-4,-1,1,1,1,-8,-11
16:21:19.118117,-6,3,0,1,1,0,0,-7
16:21:19.133110,3,-3,4,1,1,3,-4,-6
16:21:19.141102,2,3,-2,1,0,1,2,10
16:21:19.156092,-5,-5,0,-3,-5,-1,6,4
16:21:19.171082,1,-6,-6,-4,-5,-10,-16,-8
16:21:19.178080,-2,-7,-9,-8,-7,-10,-21,-14
16:21:19.178080,-8,-7,-5,-6,-3,-1,0,-8
16:21:19.193071,13,8,3,2,6,5,22,23
16:21:19.201063,-1,-2,-3,0,-1,0,-2,-3
16:21:19.216054,-2,-1,-3,1,-1,-1,-2,-3
16:21:19.223049,-6,-3,-1,0,1,6,0,-8
16:21:19.238044,-26,-8,0,0,0,-6,10,-2
16:21:19.239042,-3,-6,-6,-5,-6,-6,-7,-6
16:21:19.261026,3,0,-2,-1,-3,-3,-4,-1
16:21:19.261026,-6,-2,2,-1,1,3,2,-1
16:21:19.276019,-1,2,0,0,-4,0,-1,0
16:21:19.283016,-4,-1,-2,-3,-4,-5,-8,-4
16:21:19.298007,-5,1,2,1,-2,3,-27,-7
16:21:19.299003,11,1,-2,-1,-1,-1,6,10
16:21:19.312994,-10,-14,-13,-13,-15,-15,-16,-5
16:21:19.320989,1,2,5,3,4,9,-5,-4
16:21:19.335981,-9,-4,3,0,2,-2,-5,-2
16:21:19.342976,2,2,0,-2,1,2,11,16
16:21:19.357966,0,3,0,4,5,1,3,1
16:21:19.364965,-2,-5,-1,-1,-2,0,-1,-3
16:21:19.380952,-6,0,1,2,-2,3,-2,-6
16:21:19.380952,-10,-7,-8,-7,-7,-3,2,-1
16:21:19.395947,-5,-4,-2,-2,-3,-5,-9,-23
16:21:19.402942,5,-9,-10,-9,-13,-9,-5,8
16:21:19.417933,-2,2,1,2,4,3,-3,-1
16:21:19.425924,-1,-1,1,3,3,7,3,3
16:21:19.442915,1,0,-1,-1,-1,-1,1,-1
16:21:19.442915,-10,3,-4,1,1,2,-2,-3
16:21:19.455910,-9,-4,-6,-3,-7,-11,-8,-12
16:21:19.462905,4,0,2,0,-6,-7,-12,-11
16:21:19.477896,0,0,0,0,1,4,1,-5
16:21:19.485887,8,-3,-5,-4,-6,-13,-9,10
16:21:19.500879,-9,-1,1,0,2,-5,0,-11
16:21:19.501881,-1,-2,-2,-2,-3,-1,0,-5
16:21:19.515872,-1,-4,-4,-1,-3,-1,2,0
16:21:19.522868,-5,1,0,-1,-1,-3,-3,-1
16:21:19.537859,-2,-2,-2,-3,1,1,-1,-3
16:21:19.545854,18,-2,-2,3,3,-4,-2,26
16:21:19.560845,-17,-14,-13,-12,-13,-13,-17,-28
16:21:19.560845,-5,4,0,3,-2,-6,0,-4
16:21:19.575835,2,-1,0,3,0,-3,-5,5
16:21:19.582831,9,3,-1,1,3,1,2,17
16:21:19.597822,-1,-1,-1,-1,2,0,1,-2
16:21:19.605817,4,2,2,4,2,-12,8,4
16:21:19.628800,-18,-9,-3,-2,-2,-12,-35,-32
16:21:19.628800,2,2,-3,-1,-8,-8,5,5
16:21:19.635799,11,-1,0,3,2,-1,-11,-5
16:21:19.642794,-3,-6,-5,0,-9,-19,-20,-9
16:21:19.657785,-2,1,0,-1,1,1,2,-1
16:21:19.665777,-13,0,-4,-3,0,-2,-2,-1
16:21:19.680771,-2,0,-1,-3,-1,-4,3,1
16:21:19.687765,-10,-8,-4,-3,-4,-10,-9,-17
16:21:19.695761,2,-2,-4,-6,-10,-22,-5,1
16:21:19.702757,-19,-6,-5,-5,-15,-29,-31,-24
16:21:19.717747,-1,-4,-4,-5,-6,-10,-7,-3
16:21:19.725740,2,-1,-1,-3,0,2,-5,-7
16:21:19.740731,2,0,-1,1,-2,-2,-1,0
16:21:19.740731,2,3,2,2,0,0,1,1
16:21:19.755725,1,2,2,6,10,18,-8,-7
16:21:19.762719,-1,1,3,1,2,2,-9,-5
16:21:19.777710,2,3,1,2,-3,3,5,4
16:21:19.785706,-1,-1,-5,-6,-3,2,-3,1
16:21:19.800697,-1,2,1,0,0,-2,-5,-4
16:21:19.801697,4,-1,-2,-1,2,3,-4,7
16:21:19.815687,0,0,1,0,-4,-4,-3,0
16:21:19.822680,-3,-1,-3,-1,-4,-1,-4,-3
16:21:19.837671,9,4,3,0,4,-3,-10,1
16:21:19.845669,8,3,2,-1,4,0,9,9
16:21:19.860657,-14,-3,-3,-3,0,3,1,-10
16:21:19.861659,-3,-4,-6,-3,-3,-2,0,-4
16:21:19.875651,-5,-3,-2,0,2,4,-7,-18
16:21:19.882644,-1,-3,2,-1,0,2,1,2
16:21:19.905633,-4,2,3,2,0,0,4,-12
16:21:19.905633,-6,0,-1,-3,0,2,-6,4
16:21:19.920623,2,-4,-5,-8,-7,-5,-4,1
16:21:19.921619,-2,-6,-8,-4,-2,-4,-7,-9
16:21:19.935614,-8,-1,1,-2,-4,0,-9,-16
16:21:19.942607,5,0,1,1,0,0,4,17
16:21:19.957598,0,-2,-2,-1,-4,-10,-2,3
16:21:19.965595,-1,-1,-1,-3,0,-2,-2,-1
16:21:19.980586,-5,3,-1,-2,-1,0,6,-1
16:21:19.981584,17,-1,-6,-7,-3,2,32,30
16:21:20.002570,3,-1,-5,-2,-6,-5,-3,7
16:21:20.003572,5,3,0,0,0,-4,0,-11
16:21:20.018560,15,6,6,3,3,-3,7,6
16:21:20.025559,3,2,-2,1,0,11,13,9
16:21:20.040549,10,4,5,5,6,8,3,5
16:21:20.041549,-5,0,-3,-2,1,1,-4,-8
16:21:20.055539,-5,0,-1,2,1,-4,-4,-6
16:21:20.062533,2,4,2,0,8,20,15,18
16:21:20.078526,-13,-5,-1,1,-3,-5,-2,3
16:21:20.085522,-8,-4,2,1,3,0,2,-6
16:21:20.100510,5,-1,-3,-4,0,-1,0,5
16:21:20.101512,3,3,2,1,1,-1,17,9
16:21:20.115503,-5,-5,-2,-3,-1,2,-3,-3
16:21:20.123498,7,6,5,3,3,9,-1,-5
16:21:20.138489,-3,0,-4,-2,-4,-9,-1,-6
16:21:20.145485,-6,-12,-16,-14,-13,-5,0,-3
16:21:20.160476,-4,0,0,-1,0,8,8,6
16:21:20.161473,-3,1,-1,2,-1,-1,-3,-11
16:21:20.175466,1,2,1,2,-1,3,-1,0
16:21:20.183458,-2,-3,-3,-3,-2,-4,-2,-1
16:21:20.198452,8,1,3,-1,-4,-2,0,1
16:21:20.205448,-11,-6,-5,-5,-2,-8,-9,-16
16:21:20.220435,-12,-8,-5,-5,-5,-15,-6,-10
16:21:20.221435,1,3,3,7,5,11,10,-4
16:21:20.235430,-9,-1,0,1,3,3,2,-14
16:21:20.243423,-11,-6,-3,-3,-4,-8,-9,-6
16:21:20.258412,2,-1,1,1,3,3,5,3
16:21:20.265411,-13,-5,-3,-1,0,-4,-10,-16
16:21:20.280402,-4,0,0,-1,0,2,1,3
16:21:20.281403,-4,-4,-2,-4,-2,0,-2,0
16:21:20.303388,-6,3,4,3,10,12,-10,-5
16:21:20.303388,-11,-2,0,0,-5,-13,-14,-13
16:21:20.318377,3,4,4,1,0,2,-3,6
16:21:20.325374,-5,-2,-1,-2,-7,-15,-10,-1
16:21:20.340363,-16,-9,-4,-3,-10,-17,-8,-11
16:21:20.348360,6,2,0,-2,-1,-2,4,5
16:21:20.363348,7,5,2,0,0,-6,-1,1
16:21:20.363348,-7,-2,-2,-1,-7,-11,-11,-17
16:21:20.378342,-12,-4,2,0,3,6,-3,-14
16:21:20.385337,-7,-7,-7,-2,-5,-5,-7,-5
16:21:20.400325,2,1,-6,-4,-1,-10,-13,-12
16:21:20.408323,-2,0,1,-1,-3,1,1,2
16:21:20.423312,-3,-2,-5,-2,1,6,5,-3
16:21:20.423312,-1,-2,2,-3,-4,-1,-1,0
16:21:20.438304,-5,-5,-2,-1,0,-4,-22,1
16:21:20.445300,0,0,-5,-4,-2,0,-3,4
16:21:20.460288,8,7,3,7,11,7,26,18
16:21:20.468284,-16,-3,0,0,0,-6,-3,1
16:21:20.483275,12,2,-1,1,5,2,-3,-3
16:21:20.483275,1,0,1,2,3,2,8,-6
16:21:20.498264,-5,3,3,0,-1,4,2,-17
16:21:20.505263,0,1,2,1,-3,-1,0,-2
16:21:20.521254,14,8,4,3,8,22,34,16
16:21:20.528249,-10,-4,-8,-5,-7,0,-4,-13
16:21:20.543242,-1,-1,-2,-4,-4,-5,-2,-3
16:21:20.543242,1,0,-1,0,0,-2,5,0
16:21:20.558231,-2,-1,-1,-1,-1,-5,-6,-4
16:21:20.565224,0,1,1,2,-2,-3,-2,-4
16:21:20.580213,15,2,1,0,-2,-12,-15,1
16:21:20.588209,12,-5,-8,-8,-9,-11,4,9
16:21:20.603205,-2,-1,1,2,-3,3,0,-3
16:21:20.604199,-6,-3,0,-1,3,-3,-3,-8
16:21:20.618194,-5,-1,1,1,-1,0,1,-4
16:21:20.625199,1,-2,1,2,-1,-2,3,6
16:21:20.640177,-4,0,-3,-3,-4,-6,-7,-3
16:21:20.648176,1,2,2,1,-1,-8,-2,-8
16:21:20.663166,-5,-1,-3,4,0,8,2,10
16:21:20.663166,9,3,1,-1,3,8,7,0
16:21:20.678157,2,-1,1,0,-2,-3,-7,-1
16:21:20.685150,-1,-3,-1,1,1,-2,0,-2
16:21:20.701143,-2,-1,1,-1,-1,-4,-2,-2
16:21:20.708139,3,1,1,-1,1,7,-1,-1
16:21:20.730122,-5,-4,1,3,8,6,5,5
16:21:20.731124,-2,-5,-4,-2,-2,-11,-20,-21
16:21:20.738120,30,3,1,-1,5,3,0,1
16:21:20.745115,4,1,-1,-3,-6,-3,11,2
16:21:20.761104,-1,-3,3,2,3,4,-2,-4
16:21:20.768102,6,3,2,2,8,14,5,4
16:21:20.783091,-4,-3,-3,-2,-1,-3,-5,-5
16:21:20.784097,2,1,-1,1,-1,0,-4,3
16:21:20.798083,-4,-3,-1,-2,-2,1,-6,3
16:21:20.806078,-12,0,2,4,-4,4,4,-15
16:21:20.821069,-19,-16,-13,-12,-13,-20,-8,-13
16:21:20.835057,-22,-16,-14,-13,-14,-18,-30,-33
16:21:20.843054,10,8,5,8,2,1,8,2
16:21:20.843054,-4,-1,-1,-4,1,-4,-5,-7
16:21:20.858046,3,3,-1,-2,2,2,9,10
16:21:20.865039,-5,-4,-3,-3,3,-3,-4,-1
16:21:20.881032,-1,1,2,2,1,-2,3,5
16:21:20.888028,-18,-8,-4,-4,-3,-3,-20,-6
16:21:20.903019,0,-1,-3,-5,-7,2,5,4
16:21:20.904018,5,2,2,4,5,11,-1,-4
16:21:20.918009,-5,-3,0,0,-3,-4,-2,-2
16:21:20.925003,-14,-3,-2,0,-5,-7,-3,3
16:21:20.940996,-5,-7,-7,-1,-7,-14,-11,2
16:21:20.947991,-1,-1,-3,-2,1,-1,6,2
16:21:20.962982,-2,4,2,-1,2,2,0,-3
16:21:20.963981,-10,-9,-6,-4,-6,-3,-2,-12
16:21:20.977973,3,-2,-4,-7,-10,-7,-20,-1
16:21:20.985965,4,-2,-4,-6,0,11,14,13
16:21:21.000957,3,-1,-1,-1,-4,-2,0,-1
16:21:21.007954,0,3,1,2,4,7,1,0
16:21:21.022945,2,0,-1,-2,-2,-3,-1,0
16:21:21.023944,-4,-1,-3,-4,-6,-7,-6,-3
16:21:21.037935,11,4,4,3,-1,4,-8,-6
16:21:21.045927,-16,-1,-2,4,0,-2,-9,-21
16:21:21.060921,-9,-3,-2,0,-3,-1,10,-18
16:21:21.067917,-5,0,-1,3,4,4,-10,-8
16:21:21.082908,0,2,-2,1,6,12,-6,-11
16:21:21.097899,-1,-1,-2,-2,-1,-3,-4,-1
16:21:21.098894,-1,-2,-1,-2,0,-3,0,-3
16:21:21.105893,-4,-3,-2,0,0,0,-6,3
16:21:21.120884,-4,-1,1,-1,5,4,3,6
16:21:21.127880,10,7,5,2,-3,-2,2,1
16:21:21.142871,-12,-8,-8,-9,-15,-16,-13,-20
16:21:21.143867,-1,2,1,2,1,1,2,-2
16:21:21.157861,2,4,1,3,5,11,5,3
16:21:21.165856,0,0,1,2,0,1,1,-2
16:21:21.180848,0,1,0,2,0,0,8,5
16:21:21.187843,1,2,-2,-2,0,2,-9,-4
16:21:21.202834,6,-9,-6,-6,-3,-4,-6,4
16:21:21.203831,13,-3,-5,-2,4,14,-5,8
16:21:21.225817,14,6,5,-1,-1,8,5,16
16:21:21.225817,3,2,0,1,4,-2,1,19
16:21:21.240811,-3,1,-1,2,6,4,6,2
16:21:21.247806,-2,-2,-2,1,1,0,-7,-2
16:21:21.262797,0,-2,-3,-3,-2,4,12,11
