timestamp,emg1,emg2,emg3,emg4,emg5,emg6,emg7,emg8
18:58:17.415021,-5,-8,2,-4,-5,-1,0,1
18:58:17.421019,-3,-1,-3,2,-2,-3,-9,2
18:58:17.421019,-1,-4,-3,-2,-1,-4,-10,-12
18:58:17.444003,7,3,-2,-2,0,3,-15,19
18:58:17.445003,1,-1,-1,0,0,-2,-2,-4
18:58:17.465988,-2,1,-2,-1,-2,-3,-1,-2
18:58:17.465988,0,-3,-2,-4,0,-1,3,6
18:58:17.480978,-5,-1,-1,1,0,3,0,-2
18:58:17.480978,-3,0,-2,-4,0,-1,5,-13
18:58:17.502964,1,0,-2,-3,0,2,4,-3
18:58:17.503965,-4,-4,-3,0,-1,-3,-1,-1
18:58:17.525950,-5,-4,-3,-1,-4,-2,-18,-2
18:58:17.525950,12,7,3,1,3,-1,1,1
18:58:17.540940,-9,-1,-6,-3,-1,-1,-3,-6
18:58:17.540940,-2,0,0,1,0,3,11,4
18:58:17.562927,2,0,0,-2,-1,-2,-1,4
18:58:17.563928,-1,-3,-2,1,-1,1,-3,-4
18:58:17.585914,-2,1,-2,-1,0,-1,-5,-10
18:58:17.585914,-1,4,1,2,-2,2,6,1
18:58:17.600905,4,1,-1,-2,-5,-6,18,-5
18:58:17.600905,1,-1,0,0,0,2,-8,1
18:58:17.622889,-3,-4,-2,2,-2,1,4,2
18:58:17.623891,-7,-4,-1,-3,-3,4,0,4
18:58:17.645879,2,2,0,0,-4,-2,1,6
18:58:17.646876,5,1,1,2,2,-4,5,20
18:58:17.660867,0,-1,-2,0,-3,4,3,-5
18:58:17.661867,0,1,1,0,1,0,-1,-4
18:58:17.682855,2,2,1,-3,1,1,2,0
18:58:17.683854,0,-2,-2,-2,-3,-1,-6,-2
18:58:17.705842,0,1,-1,-2,2,0,-4,0
18:58:17.706839,-4,-1,-1,-4,3,2,0,-16
18:58:17.720833,1,0,1,-2,-1,-1,8,7
18:58:17.721832,-1,-4,-2,-1,-3,0,1,-3
18:58:17.743815,6,-1,0,-2,-1,0,-8,-3
18:58:17.743815,-1,0,-1,-1,3,-2,-1,-10
18:58:17.765805,-1,0,0,-2,3,-2,17,-5
18:58:17.766804,7,2,1,-1,0,-1,-3,-6
18:58:17.780796,-2,-4,-1,-3,0,0,3,6
18:58:17.781795,-6,-2,-3,-2,0,2,4,-4
18:58:17.803779,-3,1,1,-1,-1,-1,-1,0
18:58:17.803779,1,0,-2,-1,-1,0,-4,-2
18:58:17.825767,4,-1,-1,2,1,3,-6,2
18:58:17.826764,-7,-3,0,-4,-3,-4,-14,-16
18:58:17.840758,12,3,2,2,2,4,19,12
18:58:17.848753,-4,0,-1,-1,-2,0,-3,-8
18:58:17.871736,0,1,0,-1,-3,-4,-11,4
18:58:17.871736,-1,-2,1,-2,-3,1,-2,-2
18:58:17.885730,-1,1,-1,1,0,0,-3,-3
18:58:17.886727,1,-2,0,-3,-1,-2,-3,-2
18:58:17.900721,10,-2,-1,-5,-1,1,1,16
18:58:17.901720,-2,-1,0,2,0,1,-5,-5
18:58:17.923704,1,-2,-3,-1,-1,-4,-1,0
18:58:17.923704,-2,-1,1,1,-1,-3,-6,-6
18:58:17.945692,0,2,0,0,4,1,19,11
18:58:17.946690,2,-1,-1,1,2,2,8,-2
18:58:17.960682,-2,-2,-4,-4,-4,-1,3,-2
18:58:17.968679,1,2,1,-2,0,0,0,4
18:58:17.983669,-3,-2,-2,-3,-4,-2,-4,-1
18:58:17.983669,0,-1,3,1,-1,2,2,-1
18:58:18.005653,3,-1,-4,-3,-1,0,-3,-3
18:58:18.006653,2,-1,3,2,1,-1,0,13
18:58:18.035635,0,-2,-5,0,-2,-1,-6,-5
18:58:18.036634,-3,0,-1,-1,-2,-3,-5,-3
18:58:18.043629,-4,1,-4,-1,0,-3,14,10
18:58:18.043629,2,0,3,5,6,6,-5,4
18:58:18.065616,-1,-3,-3,-3,-3,-3,0,-7
18:58:18.073614,5,1,0,2,1,-1,2,-4
18:58:18.088605,10,2,1,1,0,1,14,16
18:58:18.088605,-3,-1,-3,-2,1,-1,-5,-3
18:58:18.103596,2,-1,-2,-3,1,-2,-2,-1
18:58:18.103596,2,1,2,0,-1,-4,-1,4
18:58:18.126579,-4,-1,-3,-2,0,-3,-7,-8
18:58:18.126579,2,0,-1,2,-2,-3,-2,8
18:58:18.148567,5,0,-1,-3,-2,4,4,3
18:58:18.149568,-2,-2,2,-3,1,-5,-1,0
18:58:18.163558,-3,-2,2,-3,-1,4,-26,-7
18:58:18.164560,0,0,-1,1,1,0,-7,-1
18:58:18.186541,5,2,-1,-3,-1,-1,-14,0
18:58:18.186541,-1,-3,-2,-1,-5,0,7,-12
18:58:18.208530,4,2,0,3,-2,-2,1,-5
18:58:18.209529,-2,-3,-1,-1,-1,-2,-1,-2
18:58:18.223521,0,0,1,-1,-2,-5,3,2
18:58:18.223521,-3,-1,-4,-5,-2,-1,-4,-6
18:58:18.246507,5,1,0,1,2,0,6,16
18:58:18.246507,-7,-3,0,1,-4,-3,-4,-5
18:58:18.268493,0,0,0,-3,0,1,10,4
18:58:18.269492,-2,1,-4,1,-2,3,2,2
18:58:18.283484,-2,0,-2,1,3,1,2,-1
18:58:18.284488,-7,-5,-3,-3,-4,0,-13,6
18:58:18.306468,-5,2,-1,2,0,-3,0,-7
18:58:18.306468,-3,2,-2,-1,-1,2,-4,-6
18:58:18.328456,4,-3,-1,0,2,-2,-4,1
18:58:18.329455,-1,-1,-1,-2,0,-1,-2,-3
18:58:18.343444,-4,-5,-2,1,1,0,-4,-9
18:58:18.344446,-1,1,0,-3,-2,0,1,-1
18:58:18.366429,-5,-3,0,-1,1,1,1,-2
18:58:18.366429,-1,0,-2,2,1,-1,1,-1
18:58:18.388419,-2,1,0,-2,-3,-1,-1,0
18:58:18.389418,-3,-4,-5,-2,-1,-1,-1,-10
18:58:18.403409,0,0,-4,-4,-4,0,-4,-3
18:58:18.411405,-4,-4,1,1,-3,-3,-1,-14
18:58:18.426393,-1,-2,-1,-3,-4,-2,-12,-6
18:58:18.426393,-4,-7,-1,0,1,2,12,-9
18:58:18.456375,-5,-2,-3,0,1,1,4,0
18:58:18.456375,-3,-3,2,1,-1,2,1,-6
18:58:18.463372,-1,2,-4,-2,-3,-3,0,-7
18:58:18.464369,3,-1,-1,-1,-1,0,-25,-2
18:58:18.486355,-4,0,2,-1,2,-1,-4,-14
18:58:18.486355,3,-3,2,0,0,5,8,8
18:58:18.508344,1,-3,0,-2,-2,-1,-12,-4
18:58:18.509341,-4,-1,-2,-2,1,-1,-4,-4
18:58:18.523335,-7,-3,-2,-3,-4,2,20,-11
18:58:18.531327,2,1,1,-1,2,1,6,-4
18:58:18.546319,1,0,-2,-3,-1,-1,2,7
18:58:18.546319,-5,-1,1,-1,-3,0,0,-1
18:58:18.568307,-1,-1,1,0,-2,0,8,1
18:58:18.569304,10,2,1,-2,-3,0,5,4
18:58:18.583296,-6,-2,-3,0,-3,-1,2,3
18:58:18.591293,2,2,1,0,1,2,-1,-3
18:58:18.606281,-4,1,-3,-3,1,-3,9,5
18:58:18.606281,11,5,2,2,2,5,-5,-1
18:58:18.628270,-3,-3,-2,1,-1,-2,0,-5
18:58:18.629269,0,-3,2,-2,-2,-3,-4,-7
18:58:18.643258,-3,-5,-4,1,0,-1,-42,3
18:58:18.651252,-2,-3,-1,-1,-1,-2,-17,-4
18:58:18.666244,-6,-4,-3,-4,-1,-3,1,-4
18:58:18.666244,-1,1,-2,1,1,-1,0,4
18:58:18.688232,0,-3,1,-3,-1,1,3,5
18:58:18.689229,0,0,2,-3,-5,-6,2,20
18:58:18.703221,3,1,1,0,2,1,5,6
18:58:18.711219,-8,-7,-3,-2,-3,-2,6,-5
18:58:18.726206,-2,-2,-1,-1,0,-3,-5,-2
18:58:18.727207,4,-3,-2,-2,-2,-1,0,8
18:58:18.748195,-3,-2,-1,0,-2,-3,11,4
18:58:18.749192,2,2,1,-1,2,-1,-18,-3
18:58:18.763184,-2,1,1,-1,-2,-1,3,-5
18:58:18.771181,-5,-3,2,-2,0,1,-7,2
18:58:18.786172,-3,-2,1,-3,0,-4,-4,-9
18:58:18.786172,6,-1,-2,-2,2,1,12,9
18:58:18.808155,1,-2,-1,-1,1,6,-3,-1
18:58:18.809158,-3,-2,-3,-4,-4,-1,-2,-8
18:58:18.823146,1,4,1,0,1,2,4,12
18:58:18.831144,2,2,0,-2,0,-5,-14,-3
18:58:18.846135,-4,-2,0,-1,-1,-1,-9,-8
18:58:18.847131,-3,-2,1,-3,0,-4,2,-2
18:58:18.868118,-7,-5,-1,-1,-3,2,1,-4
18:58:18.869117,-3,-3,1,0,-3,1,-12,0
18:58:18.884109,-3,-1,-2,-1,2,-2,-3,-3
18:58:18.891107,-3,-4,-2,-3,0,3,0,-2
18:58:18.906098,4,0,-3,-2,-2,0,7,16
18:58:18.906098,-3,-1,-2,-2,1,4,1,-1
18:58:18.929080,-4,-5,-4,1,-3,-1,-20,-15
18:58:18.929080,2,1,6,3,0,1,-20,-1
18:58:18.944071,-3,1,1,0,-3,-7,2,-3
18:58:18.951070,-4,-4,0,-1,0,1,-3,-7
18:58:18.974052,-3,-4,-1,0,5,1,18,10
18:58:18.974052,-3,-1,-2,-1,0,-2,3,-12
18:58:18.989043,3,0,6,2,0,7,15,22
18:58:18.989043,-2,2,2,3,-1,-2,6,3
18:58:19.004034,-1,-1,0,-1,1,3,3,3
18:58:19.011033,1,2,0,0,-1,-1,-4,-5
18:58:19.026020,5,5,2,0,-1,1,0,2
18:58:19.027022,-3,0,-2,0,2,-2,10,-7
18:58:19.048007,0,-1,2,1,2,1,-16,-9
18:58:19.049007,-3,-2,-2,-3,-4,-5,-1,0
18:58:19.063997,-8,-7,-5,-5,-2,-7,-2,8
18:58:19.070995,6,4,-1,0,-1,-6,-5,-13
18:58:19.085986,1,-3,-8,-3,-5,-2,0,-1
18:58:19.086984,-2,0,1,-2,-1,-4,-3,-5
18:58:19.108969,-4,-2,-1,0,-1,-2,-3,-4
18:58:19.108969,1,-2,-5,-4,-1,-3,-4,0
18:58:19.130958,1,-1,2,0,0,2,-2,0
18:58:19.131958,0,0,-2,-1,-2,-3,3,2
18:58:19.145949,-4,0,-2,-1,-3,-3,-5,-4
18:58:19.146947,1,-1,0,0,1,-1,1,2
18:58:19.168931,-7,-2,-2,-4,4,-1,-4,-4
18:58:19.168931,0,-4,-5,3,31,3,2,5
18:58:19.190921,4,3,0,-2,2,3,12,19
18:58:19.191917,-4,-2,-2,-3,3,-4,-3,-5
18:58:19.205912,-4,-1,0,1,-1,1,-2,-5
18:58:19.206912,-1,-3,-1,-3,-10,-2,-3,-5
18:58:19.228895,-3,-1,0,1,4,1,-4,-3
18:58:19.228895,-1,1,-1,3,0,-3,-1,1
18:58:19.250884,-1,-1,2,0,-52,-6,0,3
18:58:19.251880,0,-2,1,2,9,0,1,-1
18:58:19.265875,1,0,-2,-5,2,1,-1,0
18:58:19.266873,1,0,1,-20,-64,-1,0,2
18:58:19.288858,-1,0,2,-7,9,-1,0,1
18:58:19.288858,-1,0,-2,14,12,2,-1,1
18:58:19.310847,1,-2,-3,-3,-6,-3,0,-1
18:58:19.311843,-1,-1,-3,-5,-7,-5,-2,-1
18:58:19.325834,0,-1,-5,-7,-53,0,-1,0
18:58:19.326834,-1,-2,-1,-1,9,-2,0,-2
18:58:19.348820,-1,-2,-3,2,8,-1,3,-1
18:58:19.348820,-3,1,-1,9,4,-2,-1,-4
18:58:19.370809,-3,-3,2,13,31,-1,-2,-1
18:58:19.371809,5,2,6,9,12,-9,-1,2
18:58:19.385800,-5,-3,0,-4,3,1,-3,-2
18:58:19.386797,1,1,4,4,1,5,3,0
18:58:19.408783,2,2,0,-2,-7,-1,-2,1
18:58:19.408783,0,-3,0,-7,-4,1,-1,-1
18:58:19.430772,-1,1,1,-2,4,4,1,2
18:58:19.431771,2,-2,-3,3,0,-4,-1,-3
18:58:19.445759,-4,1,-4,0,-4,-4,-4,1
18:58:19.453755,1,-1,-3,-15,-2,-1,2,5
18:58:19.468748,0,1,3,8,0,0,-1,-1
18:58:19.468748,0,-3,0,-6,-2,-2,0,0
18:58:19.490735,-2,0,1,4,35,0,0,-1
18:58:19.491732,1,1,5,0,7,-1,1,-1
18:58:19.505723,-1,0,-2,6,9,-1,-2,0
18:58:19.513721,-2,2,-3,-8,-75,-7,-1,-4
18:58:19.528712,0,-2,-4,-2,26,4,1,1
18:58:19.529709,-2,0,1,2,-6,-4,-2,-5
18:58:19.550697,-1,-2,-6,-5,-5,-3,-3,-3
18:58:19.551699,0,-2,0,-2,8,1,-2,-2
18:58:19.565686,-3,-3,-2,-10,-12,-3,-3,-2
18:58:19.573684,-1,-1,-1,6,-7,-2,-1,-2
18:58:19.588674,0,0,-4,-2,-60,0,-1,0
18:58:19.588674,-2,-3,-7,-13,2,-11,-3,-4
18:58:19.610659,-2,0,-4,-15,-42,5,-2,-2
18:58:19.611658,2,-4,-5,22,-36,-9,-1,1
18:58:19.626648,-4,-3,-10,-1,111,8,-3,0
18:58:19.633646,3,1,2,-21,127,20,3,0
18:58:19.648637,4,9,8,-15,-105,-39,0,0
18:58:19.648637,8,9,-1,-27,-85,34,5,6
18:58:19.670620,4,-9,-40,-80,-128,-30,1,1
18:58:19.671623,-4,6,32,-10,-55,11,-4,-3
18:58:19.693609,3,17,16,-92,-128,-128,-13,0
18:58:19.694607,-6,-32,-26,120,76,-22,-5,-1
18:58:19.708599,4,56,12,-75,-128,-40,9,-7
18:58:19.708599,-20,-66,-122,-128,-103,-128,-28,-10
18:58:19.731585,-29,-34,-3,-118,-128,-128,-27,-33
18:58:19.731585,-43,-61,-28,127,127,127,-39,-16
18:58:19.746574,71,127,89,-128,-128,-70,72,44
18:58:19.753572,-68,-126,-80,15,-128,25,-48,-67
18:58:19.768563,26,46,60,42,-128,-128,9,25
18:58:19.769561,-65,-46,-14,56,74,-12,-33,-46
18:58:19.783554,-9,-55,-128,8,127,78,-17,10
18:58:19.783554,24,98,100,-19,127,-98,31,4
18:58:19.806536,-86,-97,-48,36,-128,-107,-64,-55
18:58:19.813535,57,82,62,49,-128,-128,27,31
18:58:19.828526,-27,-39,-31,127,127,127,14,-35
18:58:19.829522,17,69,118,127,-128,-128,10,16
18:58:19.851508,-45,-128,-78,127,-128,-108,-23,-27
18:58:19.851508,16,53,-20,-128,-128,-128,-31,19
18:58:19.866502,-36,-106,-4,127,36,127,-1,-22
18:58:19.881493,43,127,125,127,-128,46,-5,17
18:58:19.888488,-15,-50,-41,-128,127,-37,-10,-4
18:58:19.889486,-14,10,101,127,-128,-112,-58,-12
18:58:19.911473,34,116,60,127,127,127,-54,21
18:58:19.911473,33,127,127,-27,-116,-29,-55,16
18:58:19.926462,36,59,37,-128,-128,7,-16,19
18:58:19.933461,-13,58,67,-128,-128,-128,39,-4
18:58:19.948451,-94,-128,-128,-128,-128,-128,40,-31
18:58:19.955447,-30,-67,-128,-128,-128,-128,34,-15
18:58:19.971434,16,31,49,-128,-8,-10,40,4
18:58:19.971434,-26,-128,-111,-55,105,-64,-2,-19
18:58:19.986428,-7,8,54,27,40,127,16,-11
18:58:19.993423,-8,-7,16,-128,-128,-128,-39,-11
18:58:20.008414,1,25,36,43,-128,-101,-18,-5
18:58:20.009410,-1,29,35,-103,-128,-128,-24,8
18:58:20.031397,49,127,127,107,-20,-128,-56,-5
18:58:20.031397,-58,-99,-42,127,-128,-108,-17,-11
18:58:20.046392,2,-28,-62,-128,23,68,2,5
18:58:20.061381,-24,-42,-53,-20,21,127,12,-15
18:58:20.076371,0,-35,-66,86,-52,-66,-7,5
18:58:20.076371,-9,-54,-24,127,127,127,11,-2
18:58:20.091361,20,45,45,127,127,43,25,18
18:58:20.091361,12,39,-12,-128,-128,28,-6,-7
18:58:20.113349,-13,4,23,-52,-128,-128,-17,-10
18:58:20.114345,-12,-43,-49,25,17,58,18,1
18:58:20.128339,-10,-16,26,45,120,1,-3,-14
18:58:20.136332,10,13,7,76,127,127,7,4
18:58:20.151323,-4,-20,-16,-29,-128,-72,-4,5
18:58:20.151323,15,26,5,0,127,127,26,12
18:58:20.174308,10,18,42,127,49,127,8,6
18:58:20.174308,13,13,12,77,-87,-128,-9,12
18:58:20.188301,-10,-39,-26,73,127,80,-10,-8
18:58:20.203292,39,37,21,124,127,102,37,35
18:58:20.211285,9,26,21,-82,-128,-110,-11,4
18:58:20.211285,-7,-5,14,104,127,127,15,-5
18:58:20.233275,2,2,8,79,33,64,7,4
18:58:20.234273,11,25,13,127,55,127,8,2
18:58:20.248264,6,-15,-5,127,127,51,9,11
18:58:20.256260,-14,-72,-55,-74,-11,127,7,-2
18:58:20.271251,-2,10,6,127,-128,-128,-11,-2
18:58:20.271251,21,29,13,-95,127,67,17,14
18:58:20.294236,-4,-9,-13,25,127,43,2,-6
18:58:20.294236,-17,-19,9,-77,18,125,-1,-13
18:58:20.308224,-1,-26,-26,93,121,70,10,0
18:58:20.316223,-5,-12,-1,127,127,127,4,1
18:58:20.338209,22,35,44,127,-11,127,5,12
18:58:20.339208,-19,-46,-58,-128,-128,56,-16,-8
18:58:20.353197,-31,-53,-54,-121,-4,-50,-14,-20
18:58:20.361195,-38,-73,-65,-16,127,106,-9,-24
18:58:20.368191,8,-4,23,107,95,-5,11,7
18:58:20.369187,18,40,44,-11,127,127,11,5
18:58:20.391176,1,24,17,-31,-128,-78,-7,2
18:58:20.391176,14,18,-12,-2,127,77,16,11
18:58:20.413161,10,26,37,-128,-128,-128,-2,10
18:58:20.414159,-41,-106,-91,20,69,102,-1,-18
18:58:20.429152,-8,-47,-47,2,127,36,13,2
18:58:20.444141,7,31,37,-7,-26,-23,4,5
18:58:20.451136,-2,14,15,-8,-32,6,1,-8
18:58:20.451136,-9,-17,-15,-81,67,-106,-8,-5
18:58:20.473123,-14,-31,-17,-16,31,4,-9,-10
18:58:20.474124,-7,-18,8,53,-128,-104,-9,-3
18:58:20.488113,-8,-8,-5,-38,-27,57,4,-3
18:58:20.496112,-25,-54,-27,46,127,43,0,-14
18:58:20.511102,10,14,-6,-52,-120,-20,3,11
18:58:20.512098,9,18,31,72,103,12,1,0
18:58:20.533086,-3,-1,1,59,46,41,4,-4
18:58:20.534088,8,16,22,61,4,16,4,5
18:58:20.548076,9,20,-1,1,-24,-11,-2,1
18:58:20.556074,-6,-17,-20,-2,-39,-7,-5,-2
18:58:20.571062,5,11,9,-4,-33,-3,1,1
18:58:20.572062,3,9,8,-8,-22,-5,-2,-2
18:58:20.594061,-6,-9,-10,-21,-7,-6,-1,2
18:58:20.594061,0,-3,0,-15,-11,1,2,1
18:58:20.624032,0,1,-1,9,46,11,1,0
18:58:20.624032,-3,-4,-1,0,-10,0,-3,-2
18:58:20.631027,-3,-3,-1,0,-1,-1,-3,-2
18:58:20.632024,-3,-1,2,5,1,-3,-8,-4
18:58:20.654011,-2,-5,-5,-5,3,1,6,7
18:58:20.654011,-7,-1,-1,-1,-3,-3,-28,-2
18:58:20.669005,-5,5,7,7,10,2,21,22
18:58:20.675997,-45,9,10,15,21,2,-35,-7
18:58:20.690991,55,-39,22,26,48,68,45,61
18:58:20.691990,127,127,28,13,8,3,96,121
18:58:20.713975,127,-128,-13,11,37,109,-95,127
18:58:20.713975,-128,-2,11,6,-18,-42,127,-128
18:58:20.728967,127,127,23,6,-20,-9,-128,-81
18:58:20.735963,-98,-128,-33,-1,18,0,127,-97
18:58:20.750954,127,121,34,3,10,16,-47,-58
18:58:20.751953,127,34,-14,-2,7,19,-128,26
18:58:20.773936,-125,41,17,-19,59,-47,127,-32
18:58:20.773936,-14,2,29,127,66,-13,36,24
18:58:20.788930,14,-111,-48,-81,127,30,-9,30
18:58:20.795922,-53,21,-92,-128,-128,-128,-49,-19
18:58:20.810916,-11,41,127,127,127,88,-40,-19
18:58:20.811916,57,86,-37,-78,-126,-10,-21,-25
18:58:20.833899,126,48,-62,-128,-128,-128,-19,58
18:58:20.833899,-123,28,89,127,127,127,36,1
18:58:20.848893,127,-42,6,-13,-91,6,-46,74
18:58:20.855888,-80,-16,-17,-114,-128,-29,27,-37
18:58:20.870879,-26,-32,-7,28,-65,-13,-10,-4
18:58:20.871876,-1,12,0,13,127,18,-128,-63
18:58:20.893864,127,47,17,55,127,56,127,127
18:58:20.893864,-75,-26,-7,-14,38,-19,-128,-61
18:58:20.908858,30,-1,-11,-33,-58,-58,-94,6
18:58:20.915849,21,-1,5,-5,-11,13,12,4
18:58:20.930839,40,16,11,-25,-6,20,16,23
18:58:20.931841,-6,18,-4,3,-83,-29,-81,-8
18:58:20.953824,9,-9,-9,-128,-64,6,-5,-16
18:58:20.953824,4,-1,8,31,52,0,12,30
18:58:20.968816,80,11,-23,-67,-98,-13,18,18
18:58:20.975811,-35,-10,-2,-24,-5,-2,2,-5
18:58:20.990805,30,2,8,37,0,8,11,7
18:58:20.991804,-9,-11,-4,-36,-69,-25,-4,-5
18:58:21.013790,-21,-13,-2,15,29,0,4,-9
18:58:21.014789,-1,-5,4,-4,-80,-4,15,3
18:58:21.035774,-15,-11,1,34,80,26,-6,-14
18:58:21.036773,59,36,10,-6,1,39,7,52
18:58:21.050767,-4,-1,-5,-72,-128,-18,2,-15
18:58:21.058760,-11,-5,-2,17,33,-6,-4,-12
18:58:21.073750,7,-1,-9,-15,-74,8,15,15
18:58:21.073750,-8,-9,0,22,37,-3,-6,-9
18:58:21.095740,-13,9,4,-8,-8,-1,-14,-5
18:58:21.096736,-13,-3,3,-15,-81,-9,-58,-3
18:58:21.110727,-26,-8,4,29,25,-13,-9,-59
18:58:21.118725,-9,-1,0,-23,11,7,-7,-19
18:58:21.140711,3,3,5,-17,13,2,-5,8
18:58:21.141708,-3,0,1,-23,-98,-2,1,-4
18:58:21.155699,-8,-6,-6,4,46,-7,-19,-3
18:58:21.156698,22,4,-1,-7,2,0,18,17
18:58:21.178687,-9,-3,1,-15,-7,2,12,-6
18:58:21.178687,0,0,1,11,35,-19,-15,-8
18:58:21.193676,66,33,8,-5,-12,20,30,47
18:58:21.194675,-5,-9,-3,-41,-8,3,8,0
18:58:21.215663,-1,3,1,-11,66,2,-12,12
18:58:21.223660,-2,0,-2,3,-18,-2,3,-17
18:58:21.230653,0,-2,1,1,26,-2,0,3
18:58:21.238651,4,3,-4,-8,-12,2,6,2
18:58:21.253642,-17,-11,-2,0,-25,-3,-38,-11
18:58:21.254638,-4,-5,0,2,11,11,16,5
18:58:21.275627,29,12,-3,39,62,-4,5,-2
18:58:21.276625,-5,1,4,0,6,3,2,-2
18:58:21.291618,-21,-9,-2,12,12,6,5,1
18:58:21.298614,1,1,0,22,-23,-5,15,20
18:58:21.313605,-8,-5,2,12,31,5,-3,-15
18:58:21.314604,-4,-5,-1,-5,-7,-4,-8,-2
18:58:21.335588,0,0,0,-1,-3,3,0,4
18:58:21.336588,4,-1,-1,-1,-2,-10,-38,27
18:58:21.351581,10,5,5,-1,3,0,-18,50
18:58:21.358576,-10,1,1,14,-18,1,9,-8
18:58:21.373567,-21,-13,-7,2,18,-3,9,-47
18:58:21.374566,12,3,0,-14,-7,-6,-3,-3
18:58:21.395551,-4,-1,-4,24,-53,-8,-5,-10
18:58:21.403549,-3,-1,-2,-8,-1,-2,2,8
18:58:21.411542,-2,-3,1,0,-1,-6,3,4
18:58:21.418539,5,2,2,-4,-7,-4,-29,5
18:58:21.433530,-4,-3,-1,-1,2,1,26,-5
18:58:21.434530,4,2,3,-1,-4,-3,54,-23
18:58:21.456514,-10,-13,-1,1,2,-12,-46,-12
18:58:21.456514,-9,-2,-1,-2,-8,-1,19,15
18:58:21.471507,-5,1,-3,13,-17,-4,5,-11
18:58:21.478502,-1,-3,3,9,26,7,-5,-6
18:58:21.493490,-1,1,-2,-5,-6,1,3,10
18:58:21.494490,2,-2,-3,-3,-7,7,5,9
18:58:21.515478,-1,1,-2,-2,-2,-1,1,-9
18:58:21.516477,4,-4,-2,-3,2,-1,-10,10
18:58:21.531466,6,2,-1,-1,1,1,3,18
18:58:21.546457,0,1,-1,-3,0,6,79,-3
18:58:21.553456,4,3,5,-9,-24,4,-7,-1
18:58:21.554456,-5,-5,-2,0,5,-5,-6,-12
18:58:21.576439,9,2,-3,0,-2,5,13,23
18:58:21.576439,0,-1,-4,-56,-9,2,11,-1
18:58:21.591429,0,0,0,5,12,2,-54,-6
18:58:21.598428,7,1,-1,-4,-1,0,-5,-4
18:58:21.613419,1,0,0,-3,-7,2,9,-6
18:58:21.614417,2,0,-3,-2,-2,-7,-3,-4
18:58:21.636401,6,1,1,-1,-6,-2,-3,6
18:58:21.636401,4,4,-1,-1,-2,1,0,11
18:58:21.658390,-3,-2,-3,0,-50,0,4,-2
18:58:21.659388,-10,-8,-2,16,12,3,7,0
18:58:21.673378,-12,-5,-3,-7,1,-7,-35,-11
18:58:21.674378,5,3,-1,-5,-10,2,4,13
18:58:21.696364,-4,-4,-7,-1,-6,-6,-71,-12
18:58:21.697366,-2,-1,1,-3,0,2,12,0
18:58:21.718353,-4,-3,1,-1,-4,-3,-3,-8
18:58:21.719351,0,-3,-1,-1,-3,-4,0,16
18:58:21.733344,-12,-3,-1,-1,-1,-4,-36,-12
18:58:21.734343,0,-5,-7,-4,-5,-12,-27,-2
18:58:21.756329,-1,2,2,3,6,1,18,1
18:58:21.756329,-1,0,2,0,0,-1,2,-3
18:58:21.778316,5,-2,3,0,-2,-3,-10,12
18:58:21.779313,-1,4,1,33,-16,-1,-7,1
18:58:21.793305,-3,-6,-3,-1,14,-2,1,4
18:58:21.794306,2,1,2,0,0,-4,2,15
18:58:21.816292,-4,-1,0,-1,-1,0,0,-2
18:58:21.816292,1,-3,2,0,0,1,19,15
18:58:21.838279,6,6,-1,-3,0,1,-70,-4
18:58:21.839278,-1,0,-3,-1,2,-2,-34,10
18:58:21.853270,-1,0,1,-1,-2,-3,1,1
18:58:21.854269,1,-4,-2,-4,-2,0,4,0
18:58:21.876252,0,-5,-3,0,0,-3,2,-4
18:58:21.876252,-3,0,-1,6,-4,-5,-13,-10
18:58:21.898242,-4,-3,-4,-35,-7,-3,7,-5
18:58:21.899238,10,0,1,-3,3,3,0,-1
18:58:21.913232,-2,2,-2,-4,-10,1,-8,-3
18:58:21.914229,-3,0,0,1,11,3,8,-1
18:58:21.936216,0,-6,-2,-1,-4,-4,-24,3
18:58:21.936216,3,1,-1,-5,-11,-6,-2,11
18:58:21.958204,2,1,0,2,-1,-4,0,-3
18:58:21.959203,-5,-3,-3,-1,-3,-4,-3,4
18:58:21.973195,-5,-1,-1,-4,-4,-1,-5,-3
18:58:21.974192,1,5,4,2,3,13,15,9
18:58:21.996181,1,1,-5,-44,-11,-4,-1,-10
18:58:21.997180,-7,-3,1,-1,-22,0,-62,-6
18:58:22.018167,-6,-4,-3,-4,9,1,58,-8
18:58:22.019167,-1,-1,1,-3,-8,-2,-28,-6
18:58:22.033156,16,5,2,-2,-3,6,20,18
18:58:22.034157,-5,-4,-2,1,2,1,-9,-17
18:58:22.056147,5,1,0,-2,-4,-7,-9,-3
18:58:22.057143,5,0,-1,0,1,-3,-4,-2
18:58:22.079127,0,-2,1,-1,2,-3,-12,-12
18:58:22.079127,-3,-4,-3,-2,0,3,8,-2
18:58:22.093119,-3,-3,-3,-2,-6,2,63,6
18:58:22.094117,1,-1,-1,3,0,-1,-28,2
18:58:22.116107,-4,-5,-3,-13,-8,-2,6,-1
18:58:22.116107,1,-3,1,6,1,1,-1,3
18:58:22.138090,-2,0,-2,-2,-1,-2,1,-4
18:58:22.139092,2,2,0,-2,-6,-3,-5,6
18:58:22.154080,-1,-3,-3,0,4,1,-22,7
18:58:22.154080,-2,-4,-3,-39,-5,-3,5,4
18:58:22.176070,-3,-5,-3,-2,2,2,5,-7
18:58:22.177067,8,6,5,0,0,-4,-21,21
18:58:22.199052,-4,0,0,-2,-2,-2,8,1
18:58:22.199052,5,1,-1,-2,-9,1,4,8
18:58:22.214043,1,0,0,12,8,6,9,5
18:58:22.214043,-3,1,1,2,0,6,-17,1
18:58:22.236033,-9,0,-4,-4,-7,-2,2,5
18:58:22.237032,-4,-4,-2,-4,-2,-2,-12,-5
18:58:22.258018,-3,0,-2,-2,-1,2,1,-1
18:58:22.259016,-4,-4,-2,-2,1,-2,-16,1
18:58:22.281001,-1,-2,2,3,-1,0,-19,-2
18:58:22.282001,-8,0,-2,0,-1,-7,1,-7
18:58:22.295996,5,-3,-3,0,-1,0,9,10
18:58:22.296992,4,-2,-1,1,-1,-3,7,3
18:58:22.318980,1,0,3,-3,-1,6,-1,5
18:58:22.318980,0,2,1,3,3,4,11,11
18:58:22.333968,-3,-5,-1,-3,-2,2,0,-5
18:58:22.333968,-2,-1,-2,19,-3,3,-20,0
18:58:22.355958,5,-3,1,-8,0,1,4,-1
18:58:22.356959,-3,-2,-3,-1,-6,-4,1,-3
18:58:22.378941,-2,-1,-2,-4,-1,0,-8,-4
18:58:22.378941,1,-1,-1,2,-2,-1,6,4
18:58:22.393932,-3,-5,1,-4,-6,-1,-12,3
18:58:22.400930,0,1,-1,-1,3,-1,1,-7
18:58:22.415921,1,1,3,7,8,2,3,4
18:58:22.416918,-6,-2,-2,-4,-1,-2,-7,-14
18:58:22.438904,0,-5,-1,-1,-4,-3,-34,13
18:58:22.438904,-4,-3,-2,1,-3,-1,-1,-7
18:58:22.452897,0,0,-1,-1,-2,-4,1,11
18:58:22.453896,-3,1,-1,-1,-3,0,6,-4
18:58:22.475883,-3,-2,-1,7,-4,-8,10,-3
18:58:22.476881,-3,-1,-1,1,2,-1,-7,-3
18:58:22.498866,5,0,-1,-4,-1,2,2,1
18:58:22.498866,-5,1,0,1,-3,0,-2,-14
18:58:22.520856,0,1,2,-2,0,-4,-11,0
18:58:22.521855,7,6,-7,-40,-11,-5,-10,21
18:58:22.535846,-9,-7,-3,-5,-4,-7,-15,-10
18:58:22.536845,4,0,1,-2,2,-5,1,1
18:58:22.558829,4,2,4,-1,3,11,11,10
18:58:22.558829,-4,-3,-5,1,-5,-4,2,-4
18:58:22.573822,-5,-3,-4,0,-1,-1,-4,-7
18:58:22.573822,0,-1,-4,1,-1,-5,5,-7
18:58:22.595809,7,0,0,0,4,3,-13,19
18:58:22.596807,3,3,1,-1,-4,3,8,-4
18:58:22.618792,8,9,-2,2,5,-2,5,-9
18:58:22.618792,11,5,0,-6,-3,5,67,9
18:58:22.633785,-7,-4,-3,-2,-4,-4,15,-8
18:58:22.633785,-3,-3,-1,1,2,4,16,2
18:58:22.655772,-3,0,-2,0,1,-2,-3,-4
18:58:22.663767,1,-3,1,0,-9,-8,-1,9
18:58:22.678758,-5,1,0,4,9,1,8,-10
18:58:22.679758,-1,0,0,-1,-5,0,-11,2
18:58:22.693748,-2,-1,-1,-2,-5,-1,2,-2
18:58:22.700743,-1,0,2,1,-1,3,46,10
18:58:22.715735,5,0,-3,-2,-6,3,7,2
18:58:22.723729,-1,-3,-1,1,4,5,13,3
18:58:22.738717,0,2,-2,1,1,0,9,7
18:58:22.738717,-4,-5,-2,-1,-3,-4,-5,-9
18:58:22.760707,-4,-4,-4,1,-1,3,16,-10
18:58:22.761704,1,2,2,3,6,1,4,6
18:58:22.775697,2,0,-2,6,-3,-4,-1,-6
18:58:22.776697,1,-4,2,1,6,7,20,7
18:58:22.798685,2,1,-2,-5,-5,4,7,-2
18:58:22.799680,-2,1,-3,0,-4,-2,9,11
18:58:22.820667,3,1,-2,-2,-2,-2,-11,1
18:58:22.821669,5,1,2,1,1,3,4,6
18:58:22.835660,6,2,0,1,4,-3,-4,-7
18:58:22.836659,-1,-2,0,-1,-2,2,-14,-1
18:58:22.858646,-4,-4,-3,-5,-1,2,1,-2
18:58:22.858646,-4,-1,2,0,0,-3,14,0
18:58:22.881632,4,5,2,0,0,0,0,-11
18:58:22.881632,4,0,-1,-1,-3,4,-2,-4
18:58:22.895623,-4,-3,0,7,3,-2,-3,-12
18:58:22.896620,-3,-1,0,0,1,-3,0,-2
18:58:22.918609,-9,-2,-2,-4,-9,-4,-24,-15
18:58:22.919605,4,0,-1,0,2,12,5,12
18:58:22.941594,4,2,0,1,-2,-3,1,-6
18:58:22.941594,-2,-5,-3,-1,1,0,33,-1
18:58:22.955583,7,3,3,1,3,4,-6,8
18:58:22.956582,1,1,0,1,1,1,11,1
18:58:22.978572,14,2,0,-1,-2,-2,12,25
18:58:22.979570,-11,1,0,9,4,-5,2,-32
18:58:23.000555,-8,-9,-3,0,7,-3,0,-6
18:58:23.001557,4,2,2,1,0,-3,-1,1
18:58:23.016545,-3,-1,-4,0,-1,-2,-5,-1
18:58:23.023544,-1,-5,-2,-1,0,2,3,-8
18:58:23.038535,-4,-2,-3,-2,-3,-1,-16,0
18:58:23.039531,-3,-2,-2,-3,-3,-5,-19,-8
18:58:23.061518,2,3,1,2,3,2,16,-1
18:58:23.061518,-4,-3,-1,-3,-2,-4,0,-9
18:58:23.075509,-4,-3,-1,-1,-4,-5,-3,-8
18:58:23.076509,-2,-1,-2,-4,-6,-1,-5,-5
18:58:23.098494,-1,-2,-2,-4,0,0,-2,0
18:58:23.099495,-2,0,1,-2,1,4,2,-3
18:58:23.121480,-3,-1,-1,-2,-5,-3,-4,-1
18:58:23.121480,1,1,-2,-7,0,5,-27,-7
18:58:23.136471,-1,0,0,6,4,3,-11,12
18:58:23.136471,1,-1,0,-5,-6,-3,4,-4
18:58:23.158460,-4,-2,-4,-1,3,-3,5,5
18:58:23.159460,0,0,-1,0,-1,-3,1,11
18:58:23.181445,3,2,0,2,0,0,-6,18
18:58:23.181445,-3,-1,-3,-3,-4,-1,6,-4
18:58:23.196433,-1,4,5,5,15,11,1,-4
18:58:23.196433,-1,-4,0,-2,-5,-3,-38,-5
18:58:23.218423,0,-3,-2,-2,1,-3,2,2
18:58:23.219419,-1,2,-2,-6,-2,-1,10,-3
18:58:23.241407,-2,1,2,2,0,-3,-51,-1
18:58:23.241407,20,0,2,0,0,2,4,8
18:58:23.256397,8,1,-1,-2,-3,0,10,20
18:58:23.256397,-5,0,1,11,0,0,-1,-11
18:58:23.278386,-1,-3,-1,-3,3,-3,4,1
18:58:23.279383,-3,-4,0,-4,-6,-3,5,-1
18:58:23.301368,-1,2,0,-2,-2,-1,7,-6
18:58:23.301368,1,-2,-3,-4,2,-3,-5,-9
18:58:23.316361,-2,-2,-4,-4,-2,-1,33,1
18:58:23.316361,5,0,1,2,0,3,0,-1
18:58:23.338349,-7,-7,-1,-3,-4,-4,-5,-8
18:58:23.339345,9,1,1,0,0,8,18,30
18:58:23.361331,1,3,1,0,-1,-6,-5,-4
18:58:23.361331,-1,-3,-2,-2,1,4,-16,0
18:58:23.383321,4,1,1,0,2,-3,9,13
18:58:23.384320,-5,-2,-1,6,-2,-3,-25,3
18:58:23.398311,7,6,-2,0,5,-4,-12,-5
18:58:23.399308,1,-2,-1,-1,-2,-2,-3,-2
18:58:23.421295,2,-2,-1,-3,-6,-3,6,4
18:58:23.421295,-2,-1,-2,0,3,6,50,3
18:58:23.436285,11,0,-3,0,-4,-4,-7,0
18:58:23.437285,-4,0,-4,-2,-7,-2,-9,-12
18:58:23.458274,-3,1,-1,-1,0,0,-11,-7
18:58:23.459272,4,2,0,2,1,2,11,15
18:58:23.481258,-4,0,-1,0,-5,-5,3,-16
18:58:23.481258,3,1,1,3,3,6,19,27
18:58:23.496247,-1,-1,-1,-4,-7,-2,-9,-9
18:58:23.497251,-5,-4,1,7,1,-4,0,-6
18:58:23.518237,1,-2,0,-2,-4,-3,0,-1
18:58:23.519234,-2,-1,-3,2,3,-3,7,-5
18:58:23.541223,-7,-1,0,-3,-2,0,34,0
18:58:23.541223,5,5,2,0,-4,2,15,6
18:58:23.556211,0,0,1,0,4,4,26,5
18:58:23.556211,7,5,2,4,5,1,-1,-3
18:58:23.578197,4,-1,-4,0,-2,-1,7,10
18:58:23.579200,0,-1,-1,1,2,-5,3,-6
18:58:23.601183,-5,-1,-4,-2,-1,-3,-3,-5
18:58:23.602183,0,2,1,0,-3,2,0,1
18:58:23.616174,-2,1,-1,-1,1,-2,0,-1
18:58:23.616174,1,-1,-1,-1,-1,4,-1,0
18:58:23.638160,1,1,-3,-2,-3,-1,0,1
18:58:23.639159,-3,1,-2,-1,0,-4,-1,-20
18:58:23.661149,0,-1,-1,-4,4,6,-5,16
18:58:23.668143,-4,-4,0,-3,-1,-2,-11,0
18:58:23.676136,-1,-2,-1,-4,0,-3,-1,-4
18:58:23.683134,0,0,-2,1,-2,0,0,0
18:58:23.698123,1,4,-3,7,1,-4,-4,1
18:58:23.699123,-2,-2,-1,0,1,0,-4,-3
18:58:23.721112,0,-1,-3,0,0,1,-1,3
18:58:23.721112,0,0,-2,-3,-4,-2,11,3
18:58:23.759085,2,0,1,-2,2,3,-6,6
18:58:23.759085,-2,0,0,-1,-3,-1,-1,-4
18:58:23.760084,-3,0,-3,-1,3,-2,0,-3
18:58:23.766083,-9,-3,-2,-1,-6,-3,-20,-7
18:58:23.781071,0,3,1,-1,-3,-1,-30,1
18:58:23.782073,-6,-3,-2,0,-4,0,11,-6
18:58:23.796065,5,3,1,1,1,4,27,13
18:58:23.804060,0,1,0,-1,0,0,-8,-5
18:58:23.819047,-4,-1,3,2,4,7,9,3
18:58:23.819047,2,2,-2,-3,-1,0,2,10
18:58:23.841037,0,-1,2,1,4,1,0,-5
18:58:23.842034,-3,2,-4,-4,-7,-3,-13,-7
18:58:23.856028,-6,-2,1,1,0,0,7,-8
18:58:23.864023,-4,-4,-3,-5,-1,-2,-7,-4
18:58:23.879014,4,3,2,-1,2,-1,11,8
18:58:23.879014,0,-3,-1,0,2,1,-1,-1
18:58:23.901000,-3,-3,-1,-1,0,1,-5,-3
18:58:23.901996,-9,-3,-4,-5,-4,-4,-11,-13
18:58:23.923984,4,3,0,1,-3,-3,4,18
18:58:23.923984,12,5,1,-2,2,2,0,17
18:58:23.938974,-6,-1,-4,-1,0,-4,-3,-15
18:58:23.938974,-5,-4,-3,-3,-2,0,-23,-5
18:58:23.960963,-5,-2,-4,-2,0,0,21,-5
18:58:23.961959,-2,-1,0,-1,-1,-4,2,-4
18:58:23.983948,0,0,-1,3,4,0,3,0
18:58:23.983948,-3,-3,-2,-4,-5,-4,-3,-4
18:58:23.998939,-2,-1,2,0,-3,-3,7,6
18:58:23.999938,9,0,0,1,1,5,18,24
18:58:24.020926,-3,-2,-1,0,-1,-4,10,-9
18:58:24.028920,-6,0,-2,1,1,-1,1,-8
18:58:24.050907,21,7,1,-2,-1,-3,-12,16
18:58:24.051903,-9,-3,0,2,0,-1,1,-8
18:58:24.058902,0,-4,-1,-3,-1,-5,-4,-7
18:58:24.065898,3,2,-3,-3,-6,-3,1,7
18:58:24.080888,2,-3,1,0,0,-7,-41,3
18:58:24.081884,-4,-3,-3,1,-2,-2,9,0
18:58:24.103871,-1,0,0,-3,-1,1,6,2
18:58:24.104872,9,3,0,3,0,4,12,37
18:58:24.118861,-3,-4,0,-3,-1,-4,12,-7
18:58:24.118861,8,6,2,-1,-5,-3,3,2
18:58:24.140851,-7,-4,-1,-2,-5,-3,-3,-5
18:58:24.141847,5,0,0,6,0,0,-16,-5
18:58:24.163834,-5,-1,-1,2,5,3,1,-4
18:58:24.163834,-7,2,0,0,-31,-6,-1,-3
18:58:24.185823,-2,0,0,-2,9,4,5,7
18:58:24.186822,-1,1,2,2,2,1,7,4
18:58:24.200814,2,0,-1,-4,-5,-2,-64,17
18:58:24.201811,-5,-5,-1,-2,-4,-3,6,-9
18:58:24.223797,-7,0,-2,1,0,0,5,-1
18:58:24.223797,6,3,2,1,2,4,12,8
18:58:24.238790,-4,-1,0,-1,1,-1,11,-7
18:58:24.245783,6,-2,-4,1,-1,-2,0,0
18:58:24.260777,-2,-1,-2,-1,-3,-3,4,0
18:58:24.261776,-1,1,2,2,2,4,-5,12
18:58:24.283762,-4,-2,-1,0,1,3,-7,2
18:58:24.284762,-1,0,0,-3,-3,-2,-11,-3
18:58:24.298753,-4,1,0,2,2,-3,-6,-10
18:58:24.305746,1,0,0,-3,-5,-4,-14,8
18:58:24.320739,-2,-3,0,0,-1,-3,25,-2
18:58:24.321739,1,0,-2,-3,-4,-1,13,4
18:58:24.343722,-12,-3,-1,1,-5,0,0,-11
18:58:24.344722,-2,-2,-2,0,-3,-5,-10,1
18:58:24.358715,0,-4,-1,-2,-2,-2,3,-2
18:58:24.366712,1,4,3,-1,1,1,18,2
18:58:24.380702,3,0,1,-1,2,6,15,20
18:58:24.381698,4,6,-2,-2,-5,0,3,4
18:58:24.403689,-3,-1,-2,-2,3,-1,-5,-5
18:58:24.404687,0,-3,-2,-3,-5,-1,38,0
18:58:24.418676,-1,0,-3,-1,-5,-2,-6,-5
18:58:24.425671,4,3,0,-1,-1,1,18,14
18:58:24.441662,-5,-3,0,-1,0,-2,15,-1
18:58:24.441662,6,6,-1,2,-5,3,2,2
18:58:24.463651,-7,-4,1,5,6,-2,0,-6
18:58:24.464649,-6,-3,-1,-6,-2,-3,-3,-3
18:58:24.486633,0,1,0,1,-1,2,1,-1
18:58:24.486633,1,1,0,-1,-3,-7,10,3
18:58:24.500626,5,1,0,0,4,4,-2,14
18:58:24.501624,-4,-2,-2,0,0,-4,-3,-9
18:58:24.523611,1,2,1,0,1,9,1,7
18:58:24.524612,-2,-3,0,-2,-4,-4,0,-6
18:58:24.538604,7,4,-5,-3,1,-3,7,1
18:58:24.546597,3,-1,0,0,-1,1,7,4
18:58:24.560587,-4,-3,1,3,3,1,7,-4
18:58:24.561588,1,-1,0,6,-1,-2,2,0
18:58:24.583577,-2,-3,2,3,7,4,-8,1
18:58:24.584574,1,0,-1,0,-2,0,15,11
18:58:24.598567,-6,-2,-3,-2,-4,-3,-11,4
18:58:24.605563,-7,-5,-5,0,-4,-3,-12,-3
18:58:24.620550,-4,-1,-1,1,3,-1,-4,0
18:58:24.621553,-1,-2,0,-1,-1,0,3,0
18:58:24.643539,-2,0,0,-1,-3,2,1,1
18:58:24.644535,-4,-2,-2,-3,-2,-6,-43,-2
18:58:24.658530,-3,-3,-2,-3,-4,-2,26,4
18:58:24.666522,-1,0,1,2,0,-1,4,0
18:58:24.681515,-9,-3,0,0,3,-5,-7,-11
18:58:24.681515,-2,4,1,-1,-1,0,-1,10
18:58:24.703502,2,-1,2,-2,-2,0,-3,0
18:58:24.704499,-5,0,-1,-1,-1,-1,-1,-5
18:58:24.718493,3,0,1,7,5,2,-23,-6
18:58:24.726485,6,1,1,-5,-1,-2,1,10
18:58:24.741475,5,1,2,-1,-1,2,4,2
18:58:24.741475,-3,-1,-2,1,0,-1,2,-1
18:58:24.763465,3,2,2,-2,0,-1,-6,-4
18:58:24.764464,10,5,3,4,5,-2,-5,5
18:58:24.778456,-3,-3,-1,-2,-6,-2,5,7
18:58:24.786447,4,-1,-5,-2,-3,-3,3,3
18:58:24.801439,1,-3,0,-4,-4,0,4,6
18:58:24.801439,-3,-2,1,-2,-2,-3,-2,-5
18:58:24.823428,-4,-5,-4,-2,-4,0,-32,-9
18:58:24.824426,0,-1,-3,-3,-1,-1,7,-3
18:58:24.838418,-3,-1,-1,-1,-2,-2,2,-1
18:58:24.853409,-5,-3,1,-1,-4,-2,-5,-7
18:58:24.861403,-2,-3,-1,-1,0,0,-16,1
18:58:24.861403,0,-5,-2,0,-1,1,0,-1
18:58:24.883390,-1,0,-2,7,5,-2,1,-2
18:58:24.884386,-1,0,-3,-2,0,0,-1,-2
18:58:24.906375,5,5,-1,-3,-2,-3,-38,-8
18:58:24.906375,-5,-5,0,-2,-3,-7,43,-10
18:58:24.921363,11,7,3,2,0,5,20,27
18:58:24.921363,0,-1,-2,-3,3,-1,5,-5
18:58:24.943350,-9,-6,-1,2,0,-3,-6,-3
18:58:24.944351,6,-2,-2,-4,-2,2,-18,9
18:58:24.966338,-7,-4,-3,-4,-1,-3,-4,-4
18:58:24.966338,-4,-1,-2,-1,-2,-2,-3,1
18:58:24.981327,7,1,1,-3,-5,2,2,9
18:58:24.981327,2,-3,-2,-1,-3,1,-3,1
18:58:25.003316,-4,-5,-3,-2,-4,-4,-4,-6
18:58:25.004313,-6,-1,-4,-2,-1,-1,106,0
18:58:25.026299,3,1,1,1,-1,2,-4,-10
18:58:25.026299,0,-2,-3,0,0,1,8,-1
18:58:25.041289,-2,0,-1,-3,-4,5,8,11
18:58:25.048285,-2,-2,-3,1,0,0,-2,0
18:58:25.064278,-5,-12,-4,-5,-3,-4,5,6
18:58:25.064278,-4,-2,-3,0,1,-1,-6,-6
18:58:25.086263,-3,-1,2,-3,-1,2,2,-3
18:58:25.087261,8,-2,-1,2,2,4,8,19
18:58:25.101252,-3,-2,0,-1,0,-2,-24,-5
18:58:25.101252,-2,-1,-2,-1,-3,-2,21,1
18:58:25.123241,-5,2,0,0,-1,-6,2,-13
18:58:25.124241,5,2,2,-1,-3,-5,-21,23
18:58:25.146225,-5,-3,-2,2,0,-4,2,-9
18:58:25.147227,3,2,1,-3,-1,3,13,7
18:58:25.161219,-5,-4,-1,1,-1,1,-5,-2
18:58:25.168211,-1,-2,0,1,0,-1,-4,-4
18:58:25.183201,0,-2,-2,0,2,-2,1,6
18:58:25.184201,-1,-1,0,-1,-2,3,-2,-2
18:58:25.206189,5,2,-2,-3,-3,-2,17,8
18:58:25.206189,-1,2,1,0,1,-1,1,-4
18:58:25.229175,-1,-2,0,-2,-3,-4,-25,-4
18:58:25.229175,0,-1,-1,-2,-4,1,3,-7
18:58:25.244167,0,0,-1,0,1,-1,0,-4
18:58:25.244167,3,1,-3,-1,-3,0,28,-1
18:58:25.266153,1,-1,-1,-1,-1,-1,4,2
18:58:25.267153,-5,-6,-1,-2,1,-2,1,-6
18:58:25.281144,-2,-1,-4,-3,3,1,3,-2
18:58:25.288139,9,6,2,0,1,-2,4,4
18:58:25.303130,1,-2,0,-1,1,-7,-17,33
18:58:25.304129,-5,0,1,-3,-2,-1,-9,-9
18:58:25.326113,-9,-3,-6,-1,-5,-6,-12,-2
18:58:25.327114,-6,-1,-4,-3,1,-4,-7,-7
18:58:25.341107,3,1,1,0,0,-2,-2,3
18:58:25.348101,-2,-1,0,1,-2,-1,-3,0
18:58:25.363093,2,-2,-1,-1,0,2,1,3
18:58:25.364090,3,3,-4,-1,0,1,-1,5
18:58:25.386079,-2,0,2,4,2,-1,-4,-2
18:58:25.386079,2,3,-2,0,-2,6,60,10
18:58:25.401070,-2,0,-1,-3,-2,-5,-56,-6
18:58:25.408065,0,-1,-2,-2,1,0,26,-2
18:58:25.424052,-1,-2,1,-1,1,-2,-2,-4
18:58:25.424052,2,0,2,0,-1,0,1,-3
18:58:25.446041,-3,1,-3,0,0,4,3,-3
18:58:25.447040,-5,0,-3,-2,-3,-1,1,-2
18:58:25.461032,-2,-1,-1,-2,0,-1,-3,1
18:58:25.469024,6,0,-1,-3,1,-2,1,0
18:58:25.484015,-6,-5,-2,0,-2,-3,27,-3
18:58:25.484015,9,8,1,1,4,0,7,3
18:58:25.506005,-3,-5,-3,-5,-3,-1,-12,-10
18:58:25.507004,2,2,-1,-4,0,-7,-73,1
18:58:25.520995,-3,-2,2,-3,-4,-2,3,-8
18:58:25.528990,-9,0,-4,-3,-2,-4,-2,5
18:58:25.543981,1,0,-1,-4,0,3,5,8
18:58:25.543981,-5,-1,0,-2,0,1,-2,0
18:58:25.565967,-1,-1,0,1,-2,0,-5,-5
18:58:25.566963,2,-1,-4,-3,-4,1,-12,9
18:58:25.588950,-5,-3,-4,0,-3,3,0,1
18:58:25.588950,-13,-4,-6,-3,-4,-7,-1,-13
18:58:25.603941,-2,-1,-4,1,0,4,-7,-13
18:58:25.603941,-5,-1,-2,-1,-2,0,-29,-3
18:58:25.625930,-5,-2,-1,-1,-4,-2,9,2
18:58:25.626926,4,-1,-3,-2,-3,-5,2,-10
18:58:25.648913,5,2,-3,0,2,0,1,8
18:58:25.648913,-9,-6,-2,0,-6,-6,12,-6
18:58:25.663905,-3,-2,1,-2,-2,0,-7,-6
18:58:25.663905,-4,-3,2,-2,1,-3,1,-20
18:58:25.685893,9,3,-1,0,-2,-2,-13,-2
18:58:25.686890,-1,-2,-2,1,-2,-4,6,-12
18:58:25.700883,-8,-2,-1,-5,-3,-6,-44,-8
18:58:25.708878,0,-2,1,2,2,0,9,-3
18:58:25.730863,0,0,-3,-3,0,-2,-1,0
18:58:25.731864,-3,2,-2,-3,-2,0,-2,-2
18:58:25.745856,0,-5,-4,-1,-3,-2,-16,13
18:58:25.746853,-1,-1,1,-3,-7,-4,4,6
18:58:25.760845,-9,-5,-3,0,4,-2,2,-17
18:58:25.768841,-6,-4,0,-3,-1,-5,2,-8
18:58:25.783829,-1,-3,-3,-2,-2,-1,18,-5
18:58:25.783829,0,-1,3,1,1,3,6,14
18:58:25.805818,-3,-1,2,14,8,-2,-1,-2
18:58:25.806815,-1,-3,-1,-3,1,2,-4,-4
18:58:25.828801,-4,3,-1,-2,-5,-1,-14,-4
18:58:25.829801,-2,1,-1,-2,-4,-1,4,-1
18:58:25.843792,-5,-1,-2,-1,0,0,-2,-1
18:58:25.843792,5,-1,0,-2,-1,2,-3,17
18:58:25.866776,0,0,3,0,0,2,-13,-1
18:58:25.866776,-6,-2,-3,-1,-4,-2,-4,-10
18:58:25.888764,-1,1,1,4,3,5,-17,-15
18:58:25.888764,-5,-7,-2,-1,-6,-6,-4,-4
18:58:25.902759,6,1,-1,-1,-1,4,16,3
18:58:25.903754,10,-5,1,0,4,1,-56,-3
18:58:25.925742,4,1,1,-2,-3,-2,7,2
18:58:25.926740,-5,-4,-1,-3,-3,3,3,-7
18:58:25.955721,0,-2,2,1,2,-3,-8,-4
18:58:25.956723,-3,0,-2,-2,-5,-2,-6,3
18:58:25.963717,2,-2,-5,-3,0,-3,4,3
18:58:25.963717,-3,-1,-3,-1,-4,-4,2,-2
18:58:25.985705,5,4,3,4,6,2,0,6
18:58:25.985705,-4,-5,-5,-4,-2,-4,-8,5
18:58:26.008689,-2,-1,-1,-3,-4,-1,2,-7
18:58:26.008689,-3,-1,0,-3,-1,1,-46,3
18:58:26.023687,-2,-1,-2,-1,-1,-1,3,-4
18:58:26.023687,-4,-3,-2,-2,-1,-2,-10,-5
18:58:26.046668,0,-1,-1,0,-1,2,-8,3
18:58:26.046668,-3,-1,0,-3,-1,-2,-1,-2
18:58:26.068655,-2,-1,-2,9,2,-1,-2,3
18:58:26.069654,-2,-7,-3,-4,-7,2,12,-12
18:58:26.083646,1,1,0,4,4,-2,1,-4
18:58:26.084643,4,0,0,-3,0,-1,12,2
18:58:26.106629,-2,0,-1,-3,-3,2,2,-3
18:58:26.106629,-5,-3,-2,-3,-1,1,2,0
18:58:26.128616,0,1,-4,-5,-6,-3,-3,-6
18:58:26.129616,13,4,0,1,0,0,-3,14
18:58:26.143609,-1,-1,-3,-3,-4,3,2,-2
18:58:26.150601,0,-6,-2,0,-2,-8,-68,1
18:58:26.166594,-4,-1,1,-5,-4,1,7,2
18:58:26.166594,4,-2,2,-2,2,4,7,2
18:58:26.188581,-4,-4,0,0,3,-3,-11,-18
18:58:26.189580,-4,-4,-1,-3,0,0,-9,-6
18:58:26.203572,-1,-2,-2,-1,-6,-2,2,-3
18:58:26.211563,-6,-3,0,-3,-3,-2,5,14
18:58:26.226555,1,-1,-1,-3,-4,-3,-5,-1
18:58:26.226555,-9,-2,-2,-1,3,-1,9,-4
18:58:26.248544,0,-2,2,7,2,-2,-19,4
18:58:26.249540,-3,-4,-2,-2,-4,0,24,-3
18:58:26.263535,1,-1,1,-1,-3,2,0,0
18:58:26.270531,-1,-1,1,3,2,1,4,0
18:58:26.286520,-5,-3,-2,0,-3,-2,2,-4
18:58:26.286520,-1,-2,0,-2,0,-3,1,-2
18:58:26.308506,0,0,-1,-1,-4,0,-2,0
18:58:26.309504,0,1,-1,-2,-3,-2,0,2
18:58:26.323497,-5,0,1,0,-2,0,-7,-1
18:58:26.331490,-6,-6,-1,-3,1,1,4,1
18:58:26.346483,-3,-2,0,1,-1,-4,-10,-4
18:58:26.346483,1,0,0,-2,-4,-1,8,-6
18:58:26.368469,-2,-3,-3,-1,-6,-5,-1,-5
18:58:26.376462,-2,-3,0,1,-6,-5,-6,-5
18:58:26.383460,1,-1,-4,-1,1,3,40,7
18:58:26.391452,0,-1,2,1,-1,-2,6,-6
18:58:26.406443,5,2,0,3,0,8,16,11
18:58:26.406443,0,-1,0,-1,-2,-3,-4,-1
18:58:26.428432,-1,0,1,0,-1,0,2,-4
18:58:26.429431,3,6,1,1,-3,0,5,-1
18:58:26.443422,-6,-4,-1,-1,-2,-3,-4,-6
18:58:26.451417,-1,4,1,0,0,-1,1,-5
18:58:26.466407,-4,-2,-2,-4,-3,0,1,-6
18:58:26.466407,-8,-2,0,0,0,-3,-4,-7
18:58:26.488395,2,-2,-3,-2,-2,3,56,8
18:58:26.489394,1,-1,1,0,0,1,0,-10
18:58:26.503385,3,-2,-5,2,0,2,7,2
18:58:26.511377,6,4,2,5,6,2,8,9
18:58:26.526369,-2,-4,-1,-4,-3,0,-29,-1
18:58:26.526369,1,1,0,0,-1,-1,30,6
18:58:26.548358,0,-1,-1,-1,-1,6,7,-2
18:58:26.549358,-4,-3,-2,-3,-2,0,-1,-5
18:58:26.563347,1,-2,-1,0,-1,2,-1,-4
18:58:26.571341,6,2,1,-2,0,3,10,24
18:58:26.586332,-3,-4,-1,-2,-4,-3,-6,-6
18:58:26.586332,1,1,1,2,2,3,-16,-2
18:58:26.608320,-1,1,-3,1,-2,-3,-23,3
18:58:26.609317,-3,-3,-1,-3,-6,2,8,-2
18:58:26.623311,-3,0,1,1,1,-1,-10,-4
18:58:26.631306,-1,-1,-1,0,-6,0,-12,4
18:58:26.646295,1,0,2,-1,1,0,1,13
18:58:26.647297,1,-1,0,-2,1,0,-1,1
18:58:26.668283,5,2,-1,1,-4,-3,-6,-3
18:58:26.669280,-3,-1,-2,0,-6,-3,-7,2
18:58:26.691267,-8,-5,-3,-3,-3,-3,-6,-4
18:58:26.692265,-3,-1,1,-2,-4,-3,-1,-3
18:58:26.706257,-2,1,-2,-2,-3,3,15,2
18:58:26.706257,-1,-1,-1,0,0,1,-59,-5
18:58:26.728245,-1,1,-1,0,-6,-5,13,1
18:58:26.729243,2,1,0,7,0,-4,-3,5
18:58:26.751229,1,-2,1,-14,-1,5,12,7
18:58:26.751229,4,0,1,1,-38,-1,2,3
18:58:26.766219,2,0,0,0,8,-1,2,2
18:58:26.767222,-6,-2,-1,-1,-1,3,1,-11
18:58:26.788209,-5,-4,0,19,-9,-1,0,1
18:58:26.789208,-7,-4,-1,-8,15,-4,15,-6
18:58:26.811191,-4,-1,0,-4,-3,-4,-8,0
18:58:26.812191,-13,-8,-3,8,8,2,42,-2
18:58:26.826183,13,6,-2,-5,-16,-7,-5,24
18:58:26.827182,5,-1,1,1,10,3,4,3
18:58:26.848171,-3,-5,-4,-2,17,-11,-3,-5
18:58:26.849169,-5,-1,1,-3,20,0,-2,-2
18:58:26.871158,-1,-4,-1,0,15,7,16,15
18:58:26.872157,4,-1,-3,-10,-2,2,-3,-6
18:58:26.886148,-9,-6,-3,2,0,-10,-11,-12
18:58:26.887145,1,0,-3,-7,-3,1,4,-2
18:58:26.908132,0,0,1,3,0,-1,-1,0
18:58:26.909131,-4,-3,2,-1,1,0,-9,-4
18:58:26.931120,0,0,-1,0,-2,-2,-7,8
18:58:26.931120,-4,-1,-1,0,-2,-3,-23,-6
18:58:26.946111,-4,-1,-3,-4,-6,-1,1,1
18:58:26.946111,-2,0,3,10,49,3,8,-7
18:58:26.969094,-8,-3,2,21,-25,4,0,12
18:58:26.969094,5,2,-1,-6,8,-1,3,-1
18:58:26.991083,-7,-4,1,-4,-7,-2,9,-1
18:58:26.992081,-7,1,2,-1,-4,-5,-1,-5
18:58:27.014066,-2,-3,1,-5,-2,-3,0,-7
18:58:27.014066,-4,-3,-3,0,-1,-7,0,-2
18:58:27.029057,0,0,-3,-4,11,4,6,5
18:58:27.029057,-5,-2,0,3,-32,1,8,-1
18:58:27.059038,8,2,-4,-4,10,-2,-3,-11
18:58:27.059038,0,3,2,-3,-6,-1,12,14
18:58:27.073029,1,1,-2,1,-5,-6,-3,-10
18:58:27.074032,0,1,0,0,-2,-1,-16,2
18:58:27.088019,-2,-2,0,29,4,-5,-22,-7
18:58:27.089020,-6,-2,-2,-3,2,0,1,-6
18:58:27.111009,-2,-1,-2,0,-2,1,3,2
18:58:27.112006,7,3,-1,-3,1,-1,-30,-3
18:58:27.132995,-5,-3,-1,1,6,0,-1,-6
18:58:27.133995,-4,-1,-1,-10,-6,-4,2,-4
18:58:27.147985,6,3,1,2,0,1,2,1
18:58:27.148983,-1,-1,-5,-5,1,-3,-2,-4
18:58:27.170972,-4,0,-2,-1,0,0,7,-9
18:58:27.171969,-2,2,2,2,-30,4,11,18
18:58:27.185962,0,-2,-1,0,17,0,1,-5
18:58:27.193958,-2,-1,-3,3,5,-2,-1,-4
18:58:27.208945,-7,-3,-2,-2,1,-2,-81,0
18:58:27.208945,2,2,0,2,3,0,13,-1
18:58:27.230934,0,-1,-4,-3,-8,0,6,3
18:58:27.231932,1,-5,-5,-11,-2,1,2,2
18:58:27.245925,-3,-2,-2,4,4,4,5,1
18:58:27.253921,-5,-3,-6,-4,-5,-3,8,-3
18:58:27.268910,-1,-1,-1,-1,1,0,-16,1
18:58:27.268910,1,2,-3,0,0,-1,4,-2
18:58:27.290897,-3,-1,2,1,-5,-5,-1,-3
18:58:27.291894,-1,-1,1,0,-1,-2,-29,-2
18:58:27.305888,2,0,-2,-1,-1,2,14,-1
18:58:27.306887,0,-1,-1,0,-1,-2,-7,-3
18:58:27.328871,1,0,-3,-2,-1,-2,4,6
18:58:27.329870,4,-1,2,-1,0,3,6,4
18:58:27.350860,-1,-1,-1,0,-8,-3,0,2
18:58:27.351859,6,1,1,-2,-3,2,-13,26
18:58:27.365851,2,0,1,1,2,1,-3,14
18:58:27.366850,-4,-2,1,-1,-5,-3,11,-7
18:58:27.388833,0,-1,-2,-2,-3,1,28,8
18:58:27.388833,0,1,-2,2,0,-1,-4,-6
18:58:27.410823,0,-3,-4,0,1,4,54,2
18:58:27.411820,1,4,0,2,1,-1,3,-1
