timestamp,emg1,emg2,emg3,emg4,emg5,emg6,emg7,emg8
18:54:15.411109,5,0,-2,0,-2,1,5,-2
18:54:15.425104,0,-1,-3,-1,-2,2,18,2
18:54:15.426100,1,-1,-3,-1,1,-1,1,4
18:54:15.448086,-1,0,1,1,0,1,0,1
18:54:15.449087,-5,1,-1,1,-3,-4,-3,-6
18:54:15.462076,12,1,-1,0,1,-4,9,10
18:54:15.463077,-2,0,1,0,-2,-3,1,-10
18:54:15.485066,-1,1,-1,-2,-4,4,0,2
18:54:15.486065,-3,0,1,1,-1,1,-9,-2
18:54:15.508049,2,6,1,-1,-2,-11,-10,-13
18:54:15.508049,-2,-5,-1,-3,2,-2,-10,10
18:54:15.523039,-6,-1,1,1,0,-2,-4,-9
18:54:15.524039,-3,1,1,0,-3,0,3,-3
18:54:15.545028,-2,0,2,0,4,-4,1,-4
18:54:15.546025,4,1,3,1,1,6,-1,7
18:54:15.568012,1,7,1,-3,-3,0,2,-2
18:54:15.568012,1,0,0,0,-5,-2,2,-2
18:54:15.583005,-3,1,-2,0,4,2,-1,-5
18:54:15.590001,5,2,-1,-5,-2,-2,-5,-4
18:54:15.604989,-4,-4,-1,-3,1,-2,-2,9
18:54:15.605991,-10,-4,-1,-4,-4,2,-8,-14
18:54:15.631974,0,-4,0,1,1,3,6,5
18:54:15.632974,-4,-3,-5,0,1,-6,-21,-7
18:54:15.651960,-1,-6,-1,-3,-1,-1,1,2
18:54:15.651960,-20,-10,-2,-3,-3,-4,3,-6
18:54:15.664953,3,-1,1,3,3,3,3,14
18:54:15.665951,-6,-4,-1,0,1,0,-7,-11
18:54:15.687938,7,4,-1,0,-5,2,10,8
18:54:15.687938,-3,-3,0,-2,-3,-3,-8,-6
18:54:15.709922,-1,-1,-1,1,0,-2,-4,-5
18:54:15.709922,-3,3,-3,-2,-1,1,-2,-6
18:54:15.724915,2,3,-1,-1,-5,-4,3,3
18:54:15.724915,-6,0,-4,0,3,-2,0,-7
18:54:15.746905,2,0,-1,2,-2,-2,-1,1
18:54:15.747901,-2,1,-3,-3,-2,-2,-1,-4
18:54:15.762890,-4,0,0,-2,0,0,0,-4
18:54:15.769886,5,-1,0,-4,-5,-1,6,3
18:54:15.784877,-4,-1,1,0,1,-2,0,0
18:54:15.787874,6,2,0,-1,-3,0,-3,12
18:54:15.806864,2,-1,-2,-1,-2,-2,2,-7
18:54:15.807863,-1,-3,0,-1,3,2,5,5
18:54:15.822855,0,-1,0,0,0,0,-1,1
18:54:15.829850,17,8,3,2,0,-1,1,4
18:54:15.844839,0,-1,0,-1,2,3,-10,4
18:54:15.845839,4,1,0,1,2,2,4,2
18:54:15.868826,-6,-4,-5,1,-4,-8,-6,-13
18:54:15.869824,1,-1,1,-4,0,-3,-2,-1
18:54:15.882816,-1,0,0,0,-1,0,0,3
18:54:15.889811,-2,0,0,1,0,4,3,-3
18:54:15.904802,2,-3,-3,-6,-3,-6,-1,9
18:54:15.905801,3,1,0,-1,-5,0,-40,-1
18:54:15.926789,-3,2,1,0,-5,-6,4,0
18:54:15.928788,-4,-3,2,2,3,0,1,-4
18:54:15.942779,0,0,-2,1,-2,-1,6,-2
18:54:15.949776,-3,-4,-2,1,3,0,-16,-3
18:54:15.964767,-1,-6,-4,-2,-6,-9,-5,-6
18:54:15.965765,-1,-3,-1,1,2,2,3,0
18:54:15.987751,-8,-7,0,-2,-3,-3,-3,-4
18:54:15.987751,-2,-3,-7,-2,1,1,1,0
18:54:16.002741,-13,-5,-1,-2,-4,-4,0,3
18:54:16.018731,-2,3,-1,0,-3,-5,-8,-11
18:54:16.024728,-2,4,1,-1,-2,3,21,-1
18:54:16.025728,-15,-2,-1,2,-2,2,-7,-7
18:54:16.047715,-5,-3,-1,-1,-1,-4,2,-5
18:54:16.047715,-5,-2,-3,-2,-2,-2,-2,-1
18:54:16.071699,1,1,-1,0,1,0,11,-1
18:54:16.077695,0,0,-1,-2,-4,1,-1,0
18:54:16.084691,2,2,2,-1,1,5,8,2
18:54:16.084691,5,2,-1,0,2,1,1,6
18:54:16.107677,-1,0,-1,-2,-5,-3,-4,0
18:54:16.107677,-1,-7,-2,-2,-3,1,-3,-1
18:54:16.122667,3,2,-2,-1,-5,-1,5,10
18:54:16.130663,0,0,-5,-2,-1,2,-11,-1
18:54:16.145653,-6,-1,0,2,3,-2,-6,-9
18:54:16.146653,-4,-2,-1,-3,-2,-4,2,1
18:54:16.170638,-6,-4,-2,-2,-4,-9,25,-7
18:54:16.170638,-2,1,-2,2,-1,2,-6,-1
18:54:16.183633,0,-2,2,-1,0,-1,-7,-11
18:54:16.189626,-12,-7,-3,0,2,0,-3,-4
18:54:16.204616,-3,2,0,2,0,1,-1,-2
18:54:16.205616,-4,-4,-1,0,2,-2,0,-5
18:54:16.227603,-1,-1,-1,-3,-1,5,0,-6
18:54:16.229601,0,-3,0,2,-3,-1,-1,-2
18:54:16.249588,-2,-2,-3,-2,0,1,-2,-1
18:54:16.250588,0,3,-1,-1,-3,-1,-11,-1
18:54:16.264579,1,-2,0,-1,-2,1,1,-1
18:54:16.265579,1,-3,-2,-1,1,-1,-1,1
18:54:16.287566,-6,1,1,0,-5,-4,0,-4
18:54:16.287566,5,5,-2,1,-7,-13,-12,-11
18:54:16.309629,-5,-1,-2,-1,-2,0,0,-4
18:54:16.310550,7,3,0,0,-1,-3,3,-3
18:54:16.324625,-5,-3,0,1,-2,3,-14,4
18:54:16.325541,-5,-1,1,1,3,6,5,-12
18:54:16.347527,-6,-5,-3,-2,1,1,-6,-5
18:54:16.347527,2,3,1,1,3,5,6,2
18:54:16.370515,-6,1,2,-2,-3,1,-4,-2
18:54:16.370515,-1,-3,-3,-4,-2,-4,-4,-4
18:54:16.385505,-1,-3,2,0,1,-4,-6,-4
18:54:16.385505,-7,-3,2,-1,0,5,-5,-3
18:54:16.408493,1,-1,0,1,0,2,3,0
18:54:16.408493,0,1,3,1,0,0,13,-1
18:54:16.431476,-2,0,0,-3,2,2,-1,1
18:54:16.432476,-5,2,-1,1,2,-1,0,-4
18:54:16.444470,-1,1,1,-2,-1,0,0,1
18:54:16.446467,-4,-2,-2,-2,-1,0,16,-16
18:54:16.467456,2,-4,1,-2,2,1,-1,-3
18:54:16.468454,-5,0,0,-4,-1,-4,1,2
18:54:16.489442,4,1,-1,1,1,3,6,6
18:54:16.490439,2,0,-3,-3,-1,-5,-6,-5
18:54:16.505430,-3,-2,3,0,0,-1,-3,0
18:54:16.505430,14,4,-2,-4,-4,-5,-5,-4
18:54:16.527417,-2,-3,2,-1,0,1,1,-5
18:54:16.528416,0,0,0,0,1,-2,-1,0
18:54:16.550405,-3,0,3,0,-2,1,-2,-3
18:54:16.550405,0,0,0,-3,-2,-3,-6,9
18:54:16.565393,-5,-5,-3,-3,-5,5,-25,-6
18:54:16.573388,2,-1,-2,-1,-3,-4,1,-6
18:54:16.587382,3,-4,-1,0,-2,2,3,-1
18:54:16.588379,-2,-2,-3,-3,-1,2,6,0
18:54:16.610365,-2,-2,-3,-1,-5,-3,1,-4
18:54:16.611364,3,-1,0,0,-2,0,3,2
18:54:16.625356,0,-3,-3,-3,-2,-2,-16,-2
18:54:16.633351,-1,-1,3,1,0,1,1,-1
18:54:16.647343,0,2,1,-2,-4,-1,-2,2
18:54:16.648342,-5,-4,-2,0,-2,-6,-8,-4
18:54:16.670331,-1,-1,-1,3,2,3,1,-1
18:54:16.671330,-9,-1,-1,1,-1,4,-6,0
18:54:16.685322,-3,-1,3,3,3,7,4,5
18:54:16.692315,0,-3,-1,2,0,-2,-12,-5
18:54:16.707306,2,0,3,-1,-1,-1,3,3
18:54:16.708304,-2,1,1,-3,1,-2,-3,-4
18:54:16.731291,4,-2,1,-1,3,5,5,11
18:54:16.732292,-7,-2,-1,-2,-4,-2,2,2
18:54:16.745280,-2,2,0,0,-6,-3,0,-1
18:54:16.752277,1,2,-2,0,-2,-3,-3,-2
18:54:16.767268,-1,1,2,-2,0,2,10,11
18:54:16.768268,0,0,3,2,2,3,2,1
18:54:16.790253,-4,-1,2,2,3,0,-5,-9
18:54:16.790253,1,2,0,0,0,-3,-3,-3
18:54:16.813239,-4,-4,-2,-1,-1,1,-7,-1
18:54:16.813239,6,2,2,2,-1,-1,2,1
18:54:16.827231,6,0,1,-3,-3,-2,-2,5
18:54:16.828230,-4,-2,0,-3,1,1,-4,-1
18:54:16.850217,-2,-3,-2,-2,-2,0,8,2
18:54:16.850217,0,-3,1,2,-4,0,5,2
18:54:16.865208,0,1,0,-3,-2,0,-3,-3
18:54:16.872207,0,0,0,-4,-4,-7,-5,-1
18:54:16.887193,1,-1,-1,0,-2,3,2,7
18:54:16.888194,-3,-1,0,-1,1,-4,-4,-7
18:54:16.910180,-3,-2,-1,1,3,1,-2,-2
18:54:16.910180,4,4,2,0,3,3,-2,0
18:54:16.925172,5,1,2,0,-4,0,0,-2
18:54:16.932186,-11,-3,-1,-1,-3,-7,-10,-10
18:54:16.947156,-1,3,-1,-2,-1,-3,-20,-4
18:54:16.948157,0,1,1,-1,-3,-4,-2,2
18:54:16.970141,6,-3,-3,-1,-8,2,2,-3
18:54:16.970141,6,0,1,0,4,3,-2,2
18:54:16.985133,1,0,0,-1,0,2,2,5
18:54:16.992130,-1,1,-1,1,-2,-2,-2,-1
18:54:17.007118,3,2,2,0,-3,-2,-5,-8
18:54:17.008120,4,1,0,-3,0,-1,4,-5
18:54:17.030106,5,1,1,2,5,6,8,14
18:54:17.030106,1,0,-1,-3,2,-6,-7,-6
18:54:17.045096,-3,1,-1,-1,-4,-4,-5,-3
18:54:17.052092,-3,-2,-4,1,-3,-1,-3,-3
18:54:17.067081,8,3,-4,0,6,3,-2,1
18:54:17.068081,-4,-3,0,-5,9,0,1,-1
18:54:17.090069,-3,0,-4,0,3,-2,1,-2
18:54:17.090069,0,1,1,1,0,-1,5,0
18:54:17.105059,-7,-4,-3,2,-3,-1,-1,-3
18:54:17.120050,-2,1,-1,0,1,0,5,-2
18:54:17.127061,-7,-4,-2,7,-32,2,-3,-6
18:54:17.128043,-1,-2,0,-1,18,4,1,-1
18:54:17.150031,-2,-1,0,-1,2,0,-2,-3
18:54:17.151029,1,3,1,-1,-3,3,1,4
18:54:17.180015,-1,-1,-1,2,-5,-2,1,0
18:54:17.181014,-2,1,-2,-3,-3,1,-1,-2
18:54:17.187010,-5,3,-1,2,-1,1,0,-2
18:54:17.188007,5,1,-1,-1,7,1,2,-4
18:54:17.209996,-2,-3,-1,3,0,-2,-2,-2
18:54:17.210992,-3,0,-3,-1,-2,0,1,-2
18:54:17.232982,21,8,2,0,0,-1,5,12
18:54:17.233979,-1,-2,1,-4,-3,2,-1,-1
18:54:17.247970,-1,-2,-3,2,-2,-3,-3,-4
18:54:17.247970,-3,-2,-1,-2,4,0,-1,0
18:54:17.269959,-3,0,-4,-1,0,1,0,-1
18:54:17.270959,0,-1,0,4,1,0,1,1
18:54:17.292944,4,0,3,-1,11,-2,-1,0
18:54:17.292944,-2,-2,0,-7,-28,0,-4,1
18:54:17.307933,-5,-5,-3,-1,5,-2,-1,2
18:54:17.307933,1,0,-3,4,-2,-2,-3,-1
18:54:17.329922,-4,-1,0,-1,-6,-5,-2,-3
18:54:17.330921,-2,-1,-4,-3,0,1,0,-2
18:54:17.352905,11,4,0,2,5,-3,-3,7
18:54:17.353907,-1,2,2,-3,-3,-3,6,-5
18:54:17.367898,-2,0,1,11,8,-2,-4,-2
18:54:17.367898,-9,-7,-4,-4,-4,-7,-2,11
18:54:17.389885,-6,-1,0,1,-3,-3,0,-4
18:54:17.390884,-3,-3,-3,-6,-42,-5,-2,-3
18:54:17.412868,1,-2,-3,2,15,-2,-3,-3
18:54:17.413868,-4,-6,-1,-7,-4,1,-4,-3
18:54:17.427861,11,9,1,3,0,-6,-6,0
18:54:17.427861,-3,-4,-3,-5,-4,-1,2,-4
18:54:17.449847,-1,-1,-4,-1,-2,2,1,-1
18:54:17.450844,-1,0,1,-1,-7,-4,0,2
18:54:17.472833,1,0,1,-2,2,2,3,-2
18:54:17.473833,2,-2,0,-1,-4,-2,-1,-3
18:54:17.487824,-1,-2,1,11,-1,-3,-2,0
18:54:17.494819,1,-4,-5,-2,0,1,2,0
18:54:17.509807,-7,-1,-5,-11,-4,3,3,-2
18:54:17.510809,-8,-6,-5,2,-5,-6,-7,-13
18:54:17.532796,-1,2,-3,-5,-1,0,1,-2
18:54:17.533795,-3,-2,-1,0,-8,-1,-1,-1
18:54:17.547787,1,0,3,7,1,-2,-1,-4
18:54:17.555782,2,-3,-2,-3,-50,-3,1,-2
18:54:17.569769,-2,-4,1,-2,11,0,-4,-2
18:54:17.570770,-1,2,1,10,3,0,2,0
18:54:17.592759,1,0,-1,-19,-10,-8,0,0
18:54:17.593758,6,6,7,6,17,2,6,6
18:54:17.607750,-3,0,-2,8,-29,-15,-1,-2
18:54:17.615744,-9,-7,-5,-11,22,-2,-5,-3
18:54:17.629732,1,-3,-3,-4,-50,-17,1,4
18:54:17.630734,5,1,-4,-29,-6,-7,2,2
18:54:17.652722,1,-3,-19,16,-128,-5,-2,-5
18:54:17.653718,-9,-3,4,109,127,61,-1,-10
18:54:17.667712,13,13,13,-87,-13,70,13,7
18:54:17.675704,-8,15,-5,-128,-128,-90,-20,-7
18:54:17.689696,18,7,-67,-128,127,127,27,13
18:54:17.690698,-20,-18,49,127,127,-25,-7,-20
18:54:17.712683,5,9,13,127,127,-29,-22,5
18:54:17.713681,-22,50,127,127,127,127,20,5
18:54:17.727675,34,21,-43,127,-128,0,17,30
18:54:17.735670,-34,-42,10,-128,-128,-116,-13,-12
18:54:17.749659,-14,11,-22,127,-128,-110,-14,-24
18:54:17.750658,-20,-10,126,127,-128,54,-16,-30
18:54:17.772644,20,13,31,28,10,93,12,10
18:54:17.773649,-5,57,127,127,126,31,-7,-12
18:54:17.787638,-30,-73,-57,127,127,52,-18,-24
18:54:17.795630,5,43,-1,-128,-128,-128,-6,0
18:54:17.809621,-7,-19,3,-128,-24,97,0,-8
18:54:17.810623,-4,31,83,127,127,127,-8,-16
18:54:17.832610,14,106,63,-128,-128,-128,-20,7
18:54:17.833608,-38,-128,-120,32,-128,-128,4,-10
18:54:17.847600,48,127,115,-80,127,122,22,20
18:54:17.862591,-58,-128,-90,-29,102,127,-10,-29
18:54:17.869583,-11,-21,-2,-128,127,127,0,-18
18:54:17.870585,16,-23,-63,127,-128,127,35,8
18:54:17.892573,-14,-71,-86,-33,-128,127,-22,-4
18:54:17.893572,76,127,110,15,-128,-128,-6,25
18:54:17.915558,5,-55,-101,54,127,127,-12,7
18:54:17.915558,38,127,127,-128,127,127,-12,-6
18:54:17.930546,-55,-128,-94,127,127,72,-37,-3
18:54:17.930546,87,127,-15,-128,-128,-128,-41,24
18:54:17.952536,-104,-128,-103,-128,-128,-128,-35,-39
18:54:17.953532,44,45,69,127,127,-97,18,15
18:54:17.967523,-15,-57,-47,-17,-84,-1,-4,-12
18:54:17.975521,21,60,42,-128,127,127,19,4
18:54:17.990511,-12,-12,4,36,-128,10,-18,-12
18:54:17.990511,41,92,119,127,-14,124,9,16
18:54:18.012498,-18,-121,-75,127,-80,127,12,3
18:54:18.013496,47,101,87,-128,-22,127,38,34
18:54:18.027489,19,-128,-114,127,127,127,25,20
18:54:18.035484,55,127,127,127,127,-128,4,9
18:54:18.050475,-5,48,68,-128,-5,-128,-10,8
18:54:18.057467,48,23,-35,0,127,127,57,27
18:54:18.072461,37,111,127,127,127,127,13,13
18:54:18.073460,-41,-122,-111,2,-30,127,49,-6
18:54:18.095446,-29,-101,-57,58,127,127,3,-17
18:54:18.095446,33,79,34,-128,-128,-128,-9,15
18:54:18.110438,-54,-112,-77,-128,-128,-128,-19,-28
18:54:18.110438,-45,-98,-104,-55,-128,36,-4,-19
18:54:18.132421,5,30,69,-19,-106,29,2,1
18:54:18.133420,17,32,35,-128,-49,-88,5,5
18:54:18.155406,6,-16,-28,79,127,-17,2,9
18:54:18.156406,19,24,9,-128,-128,-128,-13,8
18:54:18.170397,17,64,64,8,-128,-128,-10,-3
18:54:18.170397,-3,18,35,79,-128,-35,-12,-8
18:54:18.192387,-13,-17,19,65,-62,-75,-1,-1
18:54:18.193383,35,22,-3,127,127,127,34,22
18:54:18.215372,13,59,76,-11,-128,-65,-8,4
18:54:18.215372,9,4,-17,116,127,94,-4,1
18:54:18.230361,-2,-17,-61,-128,-128,-128,-14,-3
18:54:18.230361,1,22,14,-128,-128,-128,-24,-5
18:54:18.252348,-30,-106,-85,56,41,32,-1,-4
18:54:18.253349,36,67,32,127,127,127,6,16
18:54:18.282330,8,24,16,-128,-128,-128,-7,8
18:54:18.283328,-21,-37,-31,-4,-12,-24,-7,-11
18:54:18.290323,6,4,5,33,127,90,5,4
18:54:18.290323,13,27,-12,-85,-128,-47,0,5
18:54:18.313309,-18,-41,-45,-113,-128,-12,-8,-1
18:54:18.313309,20,58,50,15,-14,-128,-15,2
18:54:18.335296,-8,-1,-11,-99,-128,-14,-4,-6
18:54:18.335296,10,24,25,88,127,15,2,7
18:54:18.350289,7,10,-11,-128,-49,-55,-2,6
18:54:18.351285,-13,-38,-31,-59,-128,-74,-15,-8
18:54:18.373275,0,-3,20,105,127,0,5,4
18:54:18.373275,15,26,-12,-128,-128,-128,-8,5
18:54:18.395258,1,15,3,23,-83,-107,-13,-4
18:54:18.396259,-4,-6,4,32,-22,2,1,1
18:54:18.410252,14,21,25,96,127,91,3,5
18:54:18.411248,-31,-83,-87,39,75,-31,-15,-13
18:54:18.433235,9,21,-9,-75,31,13,3,2
18:54:18.433235,-5,-2,2,-54,-128,-76,-4,-3
18:54:18.455224,-2,-10,-29,-59,127,-9,-5,-3
18:54:18.456220,1,-1,16,-52,-39,-8,2,-2
18:54:18.470215,2,12,3,-43,-115,-80,-6,4
18:54:18.471212,-15,-28,-14,127,127,127,23,-19
18:54:18.493199,21,55,80,-90,-128,-128,-11,8
18:54:18.493199,-36,-62,-78,-128,-59,-128,-12,-17
18:54:18.515187,0,0,13,89,-31,-128,-9,-1
18:54:18.516189,20,60,56,5,73,117,19,6
18:54:18.530178,0,-27,5,127,-74,30,2,5
18:54:18.531174,18,43,29,-128,-128,-128,-6,6
18:54:18.552161,-1,6,20,93,27,127,-3,-4
18:54:18.553160,-10,-5,7,18,-120,-59,-6,-10
18:54:18.575150,0,-4,-9,26,-5,-1,-4,-4
18:54:18.576145,-1,1,-1,-11,5,1,-1,0
18:54:18.590140,3,1,-3,-13,-2,0,1,2
18:54:18.598135,0,-2,-3,1,1,-1,-1,-3
18:54:18.613124,-3,-2,-2,-2,-2,0,0,2
18:54:18.613124,-1,3,1,14,2,10,-2,0
18:54:18.636110,-2,0,0,-4,-1,-3,10,-1
18:54:18.636110,0,6,0,-7,-8,-5,-9,-3
18:54:18.650103,-4,-4,0,-3,3,5,27,2
18:54:18.651100,-12,-14,-7,-7,-9,-5,34,-8
18:54:18.673086,9,-2,-2,-6,-5,-15,4,-31
18:54:18.673086,1,0,-4,-10,-2,2,-128,-35
18:54:18.695072,10,44,-6,-6,0,21,-31,125
18:54:18.696072,127,-28,30,18,44,93,127,80
18:54:18.710066,127,15,-49,-53,-68,-95,-128,-115
18:54:18.711062,-92,-76,-41,-6,-39,-41,-128,-128
18:54:18.733051,127,-49,62,56,74,111,-64,77
18:54:18.733051,-128,26,-18,-24,-20,-73,127,28
18:54:18.755038,-128,-110,20,28,35,59,127,-128
18:54:18.756037,-11,127,-46,-58,-60,-128,127,-128
18:54:18.770029,-118,-73,-88,-128,-128,-128,85,-29
18:54:18.771028,11,28,99,127,14,114,-29,7
18:54:18.793014,-128,-128,-11,93,-6,-13,28,-39
18:54:18.793014,46,86,-18,127,127,82,105,44
18:54:18.815001,-128,-90,38,127,-6,-63,127,-128
18:54:18.815998,127,123,-62,-128,-64,43,127,127
18:54:18.830990,13,110,54,-128,-128,-128,127,-128
18:54:18.837986,-128,-128,8,127,-128,-57,127,-128
18:54:18.852974,127,106,-1,-62,127,127,-128,127
18:54:18.852974,-128,-17,-55,-82,-128,-121,127,-124
18:54:18.874963,-93,-43,-38,-103,-128,-26,88,-128
18:54:18.875963,-128,-41,18,-4,-128,-71,-128,26
18:54:18.897946,-128,-64,44,-3,-128,-32,-100,-102
18:54:18.897946,127,105,-12,-37,33,-60,-128,126
18:54:18.912937,16,14,16,-61,56,91,127,127
18:54:18.913936,-53,-36,-7,9,-128,-32,-60,-128
18:54:18.934926,69,54,7,52,127,-1,-15,37
18:54:18.935923,-87,-78,-25,-128,-15,1,-61,-81
18:54:18.957914,59,46,5,-22,-33,-49,72,127
18:54:18.957914,57,19,-18,-15,78,-38,-119,-23
18:54:18.972903,22,0,6,-18,57,33,-128,91
18:54:18.972903,-106,-45,-5,0,11,-6,29,-128
18:54:18.994886,11,11,3,-22,-114,14,67,-48
18:54:18.995889,5,3,36,34,127,41,-73,19
18:54:19.017872,-19,-17,31,93,48,0,-32,-28
18:54:19.018874,-35,-4,-12,-82,-128,-38,64,-128
18:54:19.032864,-36,-25,-6,-42,20,36,127,-97
18:54:19.033867,52,38,15,49,127,1,68,7
18:54:19.054849,-43,-20,-23,-128,11,-15,-128,-41
18:54:19.055849,-26,-19,-1,63,2,-32,127,-47
18:54:19.077835,28,21,-6,-40,127,32,32,20
18:54:19.078836,10,-15,-32,-19,69,-6,1,-3
18:54:19.092829,-64,-33,-7,-3,3,-15,-56,30
18:54:19.092829,73,23,-14,-17,-128,-73,-128,-25
18:54:19.114813,127,69,26,26,72,11,0,110
18:54:19.115814,-49,-22,-19,-112,-24,19,4,-36
18:54:19.137800,-2,-3,5,-72,-100,-5,5,8
18:54:19.138797,-12,-13,19,127,8,29,-99,6
18:54:19.152788,3,7,18,-5,127,0,-85,6
18:54:19.153787,28,8,-8,-30,-77,12,33,47
18:54:19.174776,12,18,22,25,11,53,90,33
18:54:19.175774,-12,6,1,-107,-128,-25,-13,-98
18:54:19.197764,1,4,1,-13,-128,11,127,11
18:54:19.198760,-14,-5,-2,2,-48,0,9,-26
18:54:19.212753,-5,1,7,18,70,16,6,-4
18:54:19.213750,33,10,0,-16,31,0,114,4
18:54:19.234743,68,34,2,32,34,19,-10,28
18:54:19.235736,6,6,-2,18,-105,-2,31,19
18:54:19.257726,-23,-14,4,-4,-54,-8,-25,-44
18:54:19.258723,7,0,-3,3,18,11,44,24
18:54:19.272717,-14,-1,-6,-15,-39,-10,11,4
18:54:19.273714,-11,-12,10,33,-119,-47,-19,-28
18:54:19.294700,3,-10,-21,-40,12,-19,-30,-5
18:54:19.295700,-23,-9,1,1,-128,-44,22,-5
18:54:19.317688,-33,-9,-15,-32,-128,-15,-22,-62
18:54:19.318688,11,9,5,1,-26,11,-5,50
18:54:19.332677,-5,1,9,9,-94,-10,6,-11
18:54:19.333676,2,-2,-3,-16,-36,-20,2,12
18:54:19.355662,20,11,4,2,1,9,-18,-6
18:54:19.355662,3,-1,6,-29,-29,-19,5,-5
18:54:19.385643,-13,-8,-6,-16,-13,-14,-16,-15
18:54:19.385643,1,3,2,7,-128,-24,-9,-3
18:54:19.392642,6,1,-7,29,81,30,21,9
18:54:19.393641,-17,-6,1,-12,-31,-8,-1,-36
18:54:19.415628,17,-4,2,0,-7,0,-18,21
18:54:19.415628,-12,-9,-8,-12,24,13,19,0
18:54:19.437615,-6,-2,3,51,-15,12,24,15
18:54:19.438612,2,5,3,16,0,2,-5,23
18:54:19.452605,-5,-5,-6,-7,-64,-1,25,-1
18:54:19.453605,2,3,-5,20,80,5,-29,-20
18:54:19.475591,2,0,2,7,22,1,19,21
18:54:19.475591,8,5,4,26,81,-3,28,3
18:54:19.497577,-4,-5,6,1,13,-7,-60,-7
18:54:19.498576,-6,-5,-5,23,127,5,-1,-13
18:54:19.513565,-7,-1,1,-3,59,3,14,20
18:54:19.513565,-1,0,3,8,-6,3,1,-1
18:54:19.535554,-4,-2,-2,-58,-81,-7,-8,-7
18:54:19.542549,2,0,4,45,-93,-14,25,41
18:54:19.557543,-6,-8,-1,16,38,2,-16,-9
18:54:19.558536,-4,3,2,-12,-10,2,20,4
18:54:19.572531,-11,-4,-5,-17,-128,-41,-12,-23
18:54:19.573527,-5,-6,-4,15,40,0,-7,-18
18:54:19.595515,10,6,-1,-4,-10,-9,1,-9
18:54:19.595515,0,0,-6,-21,-95,-3,10,11
18:54:19.617503,-10,-8,1,27,27,-7,-15,-16
18:54:19.618500,-7,-2,-5,22,18,-6,-9,-12
18:54:19.632494,0,-1,-6,-15,10,-13,-11,-16
18:54:19.633490,-19,-14,-5,4,6,7,4,-9
18:54:19.655476,-8,-4,-5,-3,-8,0,127,5
18:54:19.655476,-1,-5,-3,-31,-16,20,23,6
18:54:19.677466,1,-1,-4,47,50,-12,40,19
18:54:19.678464,-4,-1,-2,5,54,-7,-4,-4
18:54:19.700448,2,-2,-2,-6,0,-13,8,20
18:54:19.700448,-6,-6,-5,-19,-48,-24,-7,-6
18:54:19.715439,-10,-10,0,6,-64,3,12,-10
18:54:19.715439,17,13,-5,-13,-19,-12,9,49
18:54:19.737428,33,2,0,-5,-2,7,-46,44
18:54:19.738428,-9,-9,-6,0,8,1,47,-16
18:54:19.760412,-7,0,2,15,55,0,0,-15
18:54:19.760412,-2,-2,-1,-20,-33,-11,5,-2
18:54:19.775402,-3,0,-3,-5,12,9,4,14
18:54:19.775402,-4,-1,-3,-21,-17,-1,-14,-10
18:54:19.797392,0,-3,-4,-4,-62,-2,11,-10
18:54:19.798388,-6,-5,-9,-4,-18,-24,-14,-17
18:54:19.820374,4,15,2,2,6,-8,-14,-7
18:54:19.820374,-5,-5,1,3,-20,-8,-53,-20
18:54:19.835364,6,1,1,15,-62,3,-24,-3
18:54:19.835364,1,4,-3,31,83,16,20,5
18:54:19.857354,-5,0,2,22,-42,-2,3,0
18:54:19.858351,-3,0,1,8,36,9,-4,-3
18:54:19.880337,0,-2,-1,-4,-3,2,-1,1
18:54:19.881339,0,2,2,0,-5,0,-11,-8
18:54:19.895332,2,-2,-2,-1,-3,4,6,11
18:54:19.895332,1,0,0,-1,-2,-4,-2,-6
18:54:19.917317,-2,-3,0,-1,-1,-1,-3,-2
18:54:19.918316,-3,0,-2,-1,-2,1,2,0
18:54:19.940300,-3,2,-2,-4,-4,-4,3,-1
18:54:19.941299,1,2,-3,-10,-7,-4,-1,2
18:54:19.955294,0,0,-4,-9,-10,0,4,1
18:54:19.955294,-6,-5,-3,4,-46,-5,-5,-3
18:54:19.977289,-1,2,-4,-7,1,-6,0,-2
18:54:19.978276,0,-2,-1,-3,-4,-1,-1,-5
18:54:20.000263,3,4,-1,3,1,2,2,12
18:54:20.001264,7,4,2,1,-3,-2,-3,-14
18:54:20.015253,-5,-1,-2,1,-1,-5,7,-1
18:54:20.016256,-3,3,-2,-1,-4,-2,4,3
18:54:20.038239,-3,0,1,-3,-3,3,-5,-7
18:54:20.038239,4,2,1,-6,-16,4,4,1
18:54:20.060228,-6,-3,-1,31,-80,-10,7,-13
18:54:20.061231,9,4,1,-3,18,12,10,29
18:54:20.075219,2,1,-1,-4,-2,-3,2,3
18:54:20.075219,-4,0,2,3,-3,-5,-1,-4
18:54:20.097203,-5,-4,-1,-5,-2,-2,-6,-7
18:54:20.098202,5,5,-2,-3,-1,2,-2,1
18:54:20.120191,17,6,1,3,-3,5,12,15
18:54:20.121191,2,0,0,1,0,0,1,0
18:54:20.135182,-2,-1,-4,-9,-7,0,-1,-2
18:54:20.136178,1,-1,-2,-25,-2,6,17,9
18:54:20.158164,3,1,1,1,-41,-10,16,16
18:54:20.158164,1,3,-2,-5,1,7,0,-2
18:54:20.180151,-1,-3,-1,0,-5,-3,1,-7
18:54:20.181154,-6,-4,0,4,4,-4,17,2
18:54:20.195142,0,-3,-4,1,1,-8,-16,-2
18:54:20.196142,-1,-3,-3,-2,-2,1,16,11
18:54:20.218127,4,4,2,-6,-11,-4,9,11
18:54:20.218127,-3,-2,0,8,21,0,-8,-12
18:54:20.240117,4,4,4,21,7,-2,3,4
18:54:20.241113,-4,-3,-1,-3,37,-1,-3,-8
18:54:20.255108,3,-6,-2,-14,-25,2,9,3
18:54:20.256109,7,2,1,2,8,-1,0,5
18:54:20.278090,-1,-2,1,0,0,-2,17,-5
18:54:20.278090,24,5,5,3,3,5,-1,11
18:54:20.300080,4,-1,-1,-6,-7,-5,-5,2
18:54:20.301078,-3,-1,0,3,2,-1,0,-1
18:54:20.315070,-3,-1,-4,-4,-6,2,-1,3
18:54:20.323062,0,2,2,1,-5,2,-15,-2
18:54:20.338054,1,-2,-1,-10,12,5,0,24
18:54:20.338054,-1,-2,1,2,-1,3,1,1
18:54:20.360042,-3,-1,-1,-4,-2,-8,-9,-7
18:54:20.361042,-1,0,0,2,-1,-1,-14,5
18:54:20.375032,-3,-4,-1,0,-1,0,-9,-8
18:54:20.383026,-1,-1,0,1,1,0,-11,0
18:54:20.398015,-2,0,1,-2,-2,-2,-1,1
18:54:20.398015,1,-2,-2,-3,-9,-6,-9,-7
18:54:20.420002,1,0,3,2,1,7,18,2
18:54:20.421003,-7,-4,-1,-2,-2,-5,-1,-10
18:54:20.434993,5,0,1,-3,-5,-2,-3,9
18:54:20.442990,-9,-9,-7,-5,-9,-12,-11,-11
18:54:20.457979,-10,0,-2,-4,-1,-4,-14,-9
18:54:20.458980,0,3,0,2,0,2,6,1
18:54:20.487960,0,-3,-4,-2,3,2,-1,2
18:54:20.487960,-2,-1,-1,0,-3,-4,-15,-3
18:54:20.494955,2,1,-1,-1,-1,-4,9,7
18:54:20.502954,-5,-3,0,-1,-6,2,-4,-7
18:54:20.517942,9,5,1,0,3,1,3,27
18:54:20.517942,4,4,1,-1,0,7,3,-1
18:54:20.539929,-5,-4,-4,-3,0,-1,5,-15
18:54:20.540928,9,6,6,3,-1,1,5,1
18:54:20.555919,0,2,-2,1,0,1,-3,-1
18:54:20.562916,-5,-1,1,0,3,-3,0,0
18:54:20.577904,-2,-5,-1,-1,-3,-5,1,-1
18:54:20.578907,-1,2,-2,-4,-1,1,-4,-3
18:54:20.599890,-2,1,1,-4,-3,-4,-10,2
18:54:20.600890,9,5,-1,-16,-6,8,23,22
18:54:20.615881,5,6,5,14,12,5,1,9
18:54:20.622880,-1,-1,-4,0,-7,-7,-8,-8
18:54:20.637871,-3,-1,-3,-3,1,1,8,2
18:54:20.637871,0,2,1,-1,-2,4,8,-2
18:54:20.659853,-1,0,0,-2,-5,-3,-5,-7
18:54:20.660856,1,3,4,4,4,6,6,-1
18:54:20.675845,3,-1,-3,-3,6,1,0,1
18:54:20.682842,-1,-1,-4,-8,-17,-7,-1,-1
18:54:20.697833,-3,1,0,6,7,0,-23,-4
18:54:20.697833,-1,-3,-2,4,-3,-1,0,-6
18:54:20.719819,-5,-3,-3,-5,-7,-3,-13,-2
18:54:20.720816,-1,-3,-1,-6,-7,-6,0,6
18:54:20.735810,-4,1,4,3,12,-1,0,-4
18:54:20.742802,-2,-1,-1,0,2,-2,-5,-1
18:54:20.757793,-2,-3,-2,-5,-5,-5,-2,-4
18:54:20.757793,-6,-2,-5,1,-2,-2,-1,-4
18:54:20.779779,7,6,-1,2,4,0,1,-1
18:54:20.780782,-4,0,-2,-3,-1,-1,-1,-3
18:54:20.795772,2,-1,0,0,2,2,0,3
18:54:20.810760,-7,-5,-5,-6,-7,0,-14,-15
18:54:20.817759,-10,-1,1,-4,-4,-6,-6,-15
18:54:20.818755,-6,-2,0,3,-2,-7,-10,-16
18:54:20.840741,-1,1,-3,-5,-7,-2,5,11
18:54:20.840741,-5,-2,-2,0,3,-3,-4,-5
18:54:20.855735,8,2,-1,2,2,-2,-11,7
18:54:20.862731,-2,1,-1,1,1,0,4,-2
18:54:20.877721,0,-5,-1,-1,-2,0,-1,6
18:54:20.878721,-6,-3,0,-1,-3,-3,-13,-10
18:54:20.900704,0,0,-3,-2,-2,4,12,7
18:54:20.900704,-11,-6,-3,-4,3,4,-5,1
18:54:20.915694,-1,-3,0,2,5,-5,-1,-1
18:54:20.922693,-5,3,-1,2,0,0,1,1
18:54:20.937684,-6,-6,-5,-2,0,2,5,2
18:54:20.938681,-1,-2,0,-1,-1,1,7,1
18:54:20.960670,10,-3,-4,-3,-1,0,1,4
18:54:20.960670,-1,1,1,0,0,3,12,11
18:54:20.982656,-8,-1,2,2,2,0,-13,-2
18:54:20.983656,-6,-1,-3,0,-5,-4,-13,-14
18:54:20.997647,-2,-2,-1,3,3,0,5,0
18:54:20.998643,-8,0,1,-1,0,-6,9,-6
18:54:21.020630,-2,-2,0,-2,0,-2,1,-1
18:54:21.020630,1,1,1,0,1,4,2,0
18:54:21.042619,-1,-2,-1,0,2,-1,1,-2
18:54:21.043616,7,4,-1,2,3,6,-5,-5
18:54:21.057610,1,0,-2,-1,-4,-1,4,-1
18:54:21.058610,0,4,-1,-4,-4,4,7,1
18:54:21.080593,-3,-1,3,0,-3,-5,24,-9
18:54:21.080593,-3,-1,-1,-1,-2,2,-4,-9
18:54:21.102582,-8,-5,-2,-1,-4,-5,-4,-8
18:54:21.103579,-5,-1,1,-3,-6,-6,5,-10
18:54:21.117571,3,-2,-2,1,0,-3,-4,-1
18:54:21.118569,-3,-3,-1,0,-3,-3,-2,-6
18:54:21.140555,2,1,-2,-3,1,-2,0,-3
18:54:21.140555,0,1,0,0,-1,-2,-1,2
18:54:21.162544,-6,-5,-1,-3,0,-2,-5,2
18:54:21.163541,-11,-7,-2,-1,0,-2,-3,-1
18:54:21.177535,-3,2,3,3,3,-6,12,-5
18:54:21.178534,13,8,3,6,5,7,6,15
18:54:21.200518,6,-2,-4,-2,-1,1,2,2
18:54:21.200518,0,-4,-4,-2,-4,-5,-8,2
18:54:21.222505,-1,0,0,4,1,5,-4,-3
18:54:21.223507,-1,1,-2,-1,-3,-4,-9,0
18:54:21.237495,-2,-2,0,-1,-2,-1,0,-3
18:54:21.245490,-2,-2,4,-1,-1,3,2,-4
18:54:21.260482,-8,-6,0,0,-3,-1,-3,-1
18:54:21.260482,-7,0,0,-1,1,-4,2,2
18:54:21.282470,8,3,-2,-1,-3,-5,-3,7
18:54:21.283470,-10,-9,-7,-4,-1,-3,-4,-8
18:54:21.297459,-4,2,-1,2,0,-2,10,0
18:54:21.305453,4,1,1,1,-1,-1,-1,0
18:54:21.320447,-4,-4,0,-3,-1,-1,0,1
18:54:21.320447,-4,-2,0,-1,-3,-5,-17,0
18:54:21.342433,-3,-3,-4,-2,-6,-3,-9,-5
18:54:21.343432,3,1,-1,-2,-1,-4,1,-1
18:54:21.357420,-5,-3,0,-2,-1,-1,-4,-5
18:54:21.365418,-3,-1,1,1,-3,0,-2,0
18:54:21.380407,-1,-2,-1,-3,2,3,-1,-1
18:54:21.380407,-7,-5,0,-1,1,-1,15,-2
18:54:21.402394,-1,-2,-1,3,0,-1,2,6
18:54:21.403395,-3,-1,-3,-3,-1,-2,-2,-1
18:54:21.417385,1,0,-2,-2,0,0,0,2
18:54:21.425381,-3,-2,-1,0,1,2,0,-2
18:54:21.448365,2,-1,0,-2,-4,-1,-3,2
18:54:21.448365,0,2,0,-2,-2,-3,-8,-1
18:54:21.462356,3,4,1,0,4,5,3,-1
18:54:21.463358,3,-3,-2,-1,2,0,-7,6
18:54:21.477348,-8,-4,3,3,7,6,1,-15
18:54:21.485345,5,4,3,-3,3,-1,2,8
18:54:21.500336,-2,-2,-4,-3,-1,-5,-10,6
18:54:21.501334,1,1,1,1,-3,0,1,-2
18:54:21.522319,-4,-1,-2,-2,-4,-4,-5,-5
18:54:21.523319,2,1,0,-1,1,5,2,2
18:54:21.538309,1,2,-4,-1,0,-2,1,2
18:54:21.553302,-5,-4,-1,0,-6,-2,14,0
18:54:21.560295,0,1,0,-1,-1,-3,1,-9
18:54:21.560295,3,-1,-1,-2,1,1,-12,4
18:54:21.590276,-6,-6,-1,-3,-3,-5,-1,-9
18:54:21.591278,-7,-1,0,1,-3,-2,-3,-11
18:54:21.598273,-2,-3,-2,1,0,-1,1,2
18:54:21.605270,-2,-2,1,1,-2,-2,-20,3
18:54:21.620261,-4,-1,3,0,1,2,8,9
18:54:21.620261,-1,1,-1,-2,0,-6,-9,-8
18:54:21.643247,-5,-5,-2,-1,-2,4,6,-1
18:54:21.643247,-3,-1,-1,-3,-1,-2,-3,-4
18:54:21.658236,0,-1,-2,0,-2,1,2,2
18:54:21.665232,0,1,0,2,-1,-1,-12,0
18:54:21.680222,-2,-1,1,3,-1,-1,1,-5
18:54:21.681220,-4,-5,-3,-6,-3,-7,-3,-5
18:54:21.703208,-8,-6,3,2,-36,-8,-33,-13
18:54:21.703208,-1,1,-1,2,6,-4,-1,-2
18:54:21.718197,-12,-7,-5,-4,-1,0,-11,-4
18:54:21.725193,2,-2,-1,-4,-5,2,3,-2
18:54:21.740187,-7,0,-1,-3,-7,-10,-3,-8
18:54:21.741185,0,-3,-3,-1,1,1,1,-1
18:54:21.763170,1,3,3,0,2,1,0,2
18:54:21.763170,12,-2,-1,-1,2,-3,4,23
18:54:21.778163,-6,-5,-4,-2,-4,2,-1,-4
18:54:21.785158,-1,-2,-1,-3,-1,-4,0,-2
18:54:21.800149,8,4,-4,-1,1,-3,-2,-1
18:54:21.801147,0,-1,-1,-3,-3,-1,-11,6
18:54:21.823135,-4,-3,1,-1,0,-4,11,1
18:54:21.823135,5,2,4,4,1,0,4,13
18:54:21.838123,-1,0,1,0,6,1,7,10
18:54:21.845122,-2,-1,-3,-1,-3,-2,0,-3
18:54:21.860112,-1,-2,-5,-3,-3,-2,-2,1
18:54:21.861108,1,-1,2,1,-2,0,0,0
18:54:21.883096,0,-5,-2,-3,-3,1,-1,0
18:54:21.883096,1,2,-2,1,-3,1,0,-1
18:54:21.898086,-3,0,-3,0,-1,1,-14,-4
18:54:21.905084,-2,-3,-3,0,-2,-2,-5,-4
18:54:21.920075,0,-2,0,1,4,1,6,14
18:54:21.921074,-4,-4,-4,-3,-3,-4,-1,-6
18:54:21.943058,-1,-1,-1,1,-1,0,-19,2
18:54:21.943058,-2,-6,-1,-2,-2,-3,-2,-5
18:54:21.973039,-6,-3,-3,1,-2,-1,15,-6
18:54:21.974039,-5,0,0,1,0,1,-3,-8
18:54:21.980035,2,-4,0,-1,-2,1,4,11
18:54:21.981037,-11,-4,-3,1,-1,-2,-4,-10
18:54:22.003021,2,-2,-1,-3,-3,0,-1,3
18:54:22.003021,-1,2,1,1,5,-2,0,-4
18:54:22.025007,2,2,1,0,0,-5,14,0
18:54:22.026006,-4,-1,-5,2,-2,-3,-4,-6
18:54:22.039998,-3,-3,-5,-4,-2,-1,16,-3
18:54:22.040997,-4,3,1,-2,-2,-1,-5,-3
18:54:22.062984,7,3,2,0,-1,-1,6,7
18:54:22.062984,15,6,-4,4,-2,1,-2,6
18:54:22.084970,-1,-3,-5,-2,0,-1,-4,-8
18:54:22.085971,7,4,5,1,-3,-5,-5,17
18:54:22.099960,-1,-3,-7,-1,-5,-5,-14,-6
18:54:22.100962,-3,-4,-1,-3,0,2,7,1
18:54:22.122949,0,-3,-2,0,-2,1,1,-3
18:54:22.122949,-2,-2,0,-1,-2,-2,1,-3
18:54:22.144935,2,-4,0,1,-1,-3,-3,2
18:54:22.145934,8,1,0,0,2,-5,-4,1
18:54:22.159923,2,1,0,-4,-3,0,4,6
18:54:22.160922,-9,-6,-1,-3,-4,0,-14,-2
18:54:22.182913,5,-1,-1,-4,-2,-2,5,3
18:54:22.183910,-5,-1,-1,1,0,-3,-14,-6
18:54:22.204895,-3,0,1,0,-1,1,2,0
18:54:22.205895,0,-2,-2,2,6,1,-20,-2
18:54:22.220888,1,2,1,0,-2,-1,2,-1
18:54:22.227884,-1,-1,-1,-2,-4,-3,0,1
18:54:22.242875,-1,-2,-2,-2,-1,-2,11,11
18:54:22.242875,-4,0,0,-2,-1,-3,-2,-2
18:54:22.265858,-2,-3,0,-1,3,-1,-3,5
18:54:22.265858,23,9,5,2,1,1,0,7
18:54:22.279849,4,3,0,-2,-2,0,1,-2
18:54:22.287847,3,1,-3,2,2,0,-4,9
18:54:22.302838,-5,-5,-3,1,1,-2,14,-5
18:54:22.303836,2,3,-1,1,-3,2,5,-3
18:54:22.324828,0,-3,-3,1,1,2,0,0
18:54:22.325823,-3,-1,0,0,1,-2,-3,1
18:54:22.340814,-3,1,-1,-3,-4,-3,-1,-6
18:54:22.347806,-10,-3,-1,1,-1,-5,-10,-13
18:54:22.364796,2,2,-2,2,0,-2,-6,2
18:54:22.365796,-2,-4,-3,-1,-1,-3,2,-3
18:54:22.384783,-4,0,-3,0,1,2,4,3
18:54:22.385783,4,4,2,3,1,2,2,2
18:54:22.399774,0,0,0,2,0,6,-5,-1
18:54:22.407770,-6,-3,-3,-3,-4,-6,20,-14
18:54:22.422759,-1,3,0,-1,0,-1,2,-4
18:54:22.422759,-3,0,1,-3,-1,0,-3,-2
18:54:22.444745,-3,0,0,-2,-4,-5,-1,-2
18:54:22.445745,-6,-4,1,-1,2,0,-1,-5
18:54:22.459736,5,3,0,2,3,6,2,9
18:54:22.467732,-2,-5,0,-1,-3,-1,2,-1
18:54:22.482722,-6,-6,-4,-2,-2,-4,12,-10
18:54:22.482722,-1,-1,0,-1,-3,-3,-2,-3
18:54:22.504708,-1,0,-1,-3,-1,-2,-3,-6
18:54:22.505709,-4,-3,2,0,-2,-1,-3,-2
18:54:22.519702,-1,-1,2,2,0,-2,-5,5
18:54:22.527694,2,2,3,-1,2,2,6,-7
18:54:22.542686,-1,-3,0,-2,1,2,2,3
18:54:22.542686,1,3,1,-1,-3,-5,-1,-2
18:54:22.564672,-3,-4,-3,-1,-3,1,-1,-3
18:54:22.565672,-2,-3,0,-1,-1,-3,-6,-7
18:54:22.579666,-5,-4,-2,-1,1,2,1,3
18:54:22.587658,6,-1,-2,-2,1,3,-1,-5
18:54:22.602649,-7,0,0,-5,-1,-1,-9,-1
18:54:22.602649,-6,-6,-1,1,-1,5,17,-3
18:54:22.624653,1,1,0,-1,-1,0,4,-4
18:54:22.625635,-3,-2,1,-2,-1,-3,2,-3
18:54:22.639628,4,4,3,-1,4,5,10,7
18:54:22.647621,-5,-3,-4,-1,-3,-4,1,-3
18:54:22.662611,8,8,0,2,-2,-1,10,-2
18:54:22.662611,2,-2,0,3,0,3,3,3
18:54:22.692593,-4,-4,1,-3,-2,-1,0,1
18:54:22.692593,-5,-4,-1,0,-1,-1,2,-12
18:54:22.699591,-1,-3,0,-2,-3,-3,-1,-5
18:54:22.707585,-5,-5,-1,-3,1,-3,6,-2
18:54:22.722575,-4,-5,-4,-4,0,-4,8,-3
18:54:22.722575,5,5,2,2,0,4,4,0
18:54:22.744610,-1,-1,0,-1,2,1,-2,-6
18:54:22.745560,-3,-1,-5,-1,-3,-5,-7,2
18:54:22.759554,0,1,-1,-3,2,2,5,8
18:54:22.767548,-3,-1,-1,-2,-1,-3,-7,1
18:54:22.782538,-6,0,-4,-4,-4,-1,-2,-4
18:54:22.782538,5,1,1,1,1,-2,8,-8
18:54:22.804526,-1,-1,-1,0,3,-2,12,-2
18:54:22.805523,13,4,0,-1,-1,2,-14,15
18:54:22.819516,0,-4,-3,-1,-1,-9,-5,-5
18:54:22.827509,-4,-1,-3,3,13,-3,-7,-11
18:54:22.842501,-5,-2,0,-11,-46,-3,1,-4
18:54:22.842501,-2,-4,0,2,11,-3,-25,-5
18:54:22.865495,4,2,-2,1,-3,1,2,1
18:54:22.865495,5,1,0,-2,-2,3,0,2
18:54:22.887473,3,-2,0,-2,-1,-6,0,4
18:54:22.887473,-9,-12,-4,-2,-4,0,7,-5
18:54:22.902463,-2,2,0,-1,-2,-2,-1,-3
18:54:22.902463,-6,-3,-3,-1,-3,-1,-21,-9
18:54:22.924450,-3,0,-2,0,0,-1,-14,-5
18:54:22.925448,-7,-3,-2,1,-3,-2,-1,-3
18:54:22.947435,-1,-1,-2,0,-1,-3,-21,-4
18:54:22.948434,-3,-1,-3,0,0,1,-2,-4
18:54:22.962425,2,0,0,2,3,-3,1,5
18:54:22.963425,6,3,-1,2,2,-1,-2,1
18:54:22.984417,1,2,1,-2,-1,-2,3,4
18:54:22.985411,3,1,-3,0,4,0,-6,-13
18:54:23.007397,-4,-2,-2,-3,-4,-6,-5,-11
18:54:23.008397,-6,-1,-1,-1,-3,-5,-6,-6
18:54:23.022388,7,3,2,5,6,10,0,11
18:54:23.022388,-5,-1,0,1,2,-4,3,-1
18:54:23.044379,-7,-5,-1,-1,0,2,-1,-6
18:54:23.045374,-2,1,-2,-2,-1,0,2,0
18:54:23.067360,1,0,2,-2,-3,0,-2,2
18:54:23.067360,2,6,-3,1,-1,2,12,5
18:54:23.082351,-3,-1,-3,1,-3,-2,-2,-3
18:54:23.083351,-3,1,0,-1,-4,-1,-3,-5
18:54:23.104364,9,4,1,1,2,-1,-8,-4
18:54:23.105336,0,0,-1,2,-1,3,3,1
18:54:23.127322,-2,-3,-2,3,0,-3,-1,-3
18:54:23.128322,-4,0,0,-1,-2,-4,-6,-6
18:54:23.142313,-4,-1,-2,0,-1,-4,15,-3
18:54:23.143314,4,1,1,2,1,6,7,1
18:54:23.165303,-4,2,-2,-3,-4,-3,-1,-5
18:54:23.165303,-3,-3,-5,-1,-6,-2,-2,-6
18:54:23.187287,-4,1,1,-1,-1,1,-3,-3
18:54:23.188285,0,-1,-3,0,-2,-2,4,16
18:54:23.203276,1,-1,-1,2,-1,1,-3,-2
18:54:23.210275,-4,-2,0,-1,0,-7,-6,-3
18:54:23.233257,-4,-1,0,-2,-1,0,-3,-7
18:54:23.233257,-6,0,0,-1,0,-5,-4,-4
18:54:23.248249,-2,-1,-4,-3,-4,0,-1,-2
18:54:23.248249,-4,-2,-1,-1,-3,-2,11,-2
18:54:23.263241,7,0,-2,-2,2,4,2,-6
18:54:23.270238,0,-1,-2,-3,0,-2,6,0
18:54:23.285228,-3,-3,0,-1,1,-2,3,10
18:54:23.286225,6,2,3,1,0,0,1,9
18:54:23.307212,5,1,-1,0,-2,3,-4,-1
18:54:23.308214,-5,-6,1,2,-1,-4,-5,-4
18:54:23.323202,-3,-2,-6,-1,-2,-3,-3,-2
18:54:23.330197,1,-2,-2,-1,-2,2,5,5
18:54:23.345191,-1,-1,1,2,3,-1,-6,-8
18:54:23.346188,1,5,-1,2,-4,0,5,14
18:54:23.368175,-3,-4,-1,-3,-2,-3,12,0
18:54:23.368175,-5,0,-1,-1,2,-7,-1,-10
18:54:23.383165,1,-2,1,2,-1,1,-7,-4
18:54:23.390163,-2,-1,-2,0,-2,-2,-12,-4
18:54:23.405154,1,-1,1,3,3,-1,-3,-2
18:54:23.406154,-4,3,-4,-4,-8,-1,1,0
18:54:23.428138,-3,-4,-1,-2,-1,0,3,8
18:54:23.428138,5,2,4,2,-2,-2,0,-2
18:54:23.450127,-1,-3,-1,0,-2,-3,14,2
18:54:23.451125,1,3,1,-1,2,7,5,2
18:54:23.465114,0,2,-1,0,1,-1,-4,-5
18:54:23.466114,-3,-6,-3,-1,1,1,3,0
18:54:23.488102,4,-1,-1,1,3,0,-4,-2
18:54:23.488102,1,-3,-1,-1,-1,4,-9,-3
18:54:23.510086,-1,-1,-1,1,0,-1,4,-2
18:54:23.511087,11,6,1,2,2,-3,-5,3
18:54:23.525076,0,1,-1,1,0,-3,2,0
18:54:23.526076,-7,-1,-1,-3,0,-3,-9,-13
18:54:23.548063,-1,1,-1,-1,-3,-4,2,0
18:54:23.548063,8,5,2,0,-1,-1,-14,-4
18:54:23.570051,5,-3,0,-1,-3,-1,-1,-2
18:54:23.571049,2,2,-2,-4,-4,-6,-4,-2
18:54:23.585042,-1,-2,0,-3,-2,-3,-15,-5
18:54:23.586038,-3,-2,0,0,0,2,4,3
18:54:23.608025,3,4,-2,-2,-6,-3,-5,-6
18:54:23.608025,4,0,0,1,0,-6,-13,-3
18:54:23.630011,-3,0,-4,-2,1,0,11,-6
18:54:23.631011,0,-2,-2,-3,1,1,2,-7
18:54:23.645005,1,1,-1,0,0,0,-1,3
18:54:23.646003,-3,-4,0,0,-1,3,-15,1
18:54:23.667988,8,4,2,1,0,0,-2,-4
18:54:23.668990,-5,-2,-2,-1,-1,-1,-4,-7
18:54:23.689977,0,-1,0,0,2,6,16,15
18:54:23.690977,5,-4,-3,-1,1,0,-4,3
18:54:23.704968,2,2,-2,-1,0,-1,-2,-1
18:54:23.705967,-3,0,-3,-4,0,-1,0,-6
18:54:23.727951,0,-4,-1,0,-3,-2,-1,-4
18:54:23.727951,-2,1,2,0,-1,-1,-13,2
18:54:23.749940,-3,-2,0,1,-5,-5,2,-2
18:54:23.750936,5,3,1,1,1,5,11,11
18:54:23.764931,-4,1,3,2,4,2,-10,-3
18:54:23.765927,-6,0,0,-2,-3,-3,-2,-5
18:54:23.794909,-2,-2,-3,1,-1,0,-1,-1
18:54:23.795909,3,0,-2,0,1,3,1,3
18:54:23.809904,6,8,2,-1,-4,-7,2,-11
18:54:23.810904,12,3,-2,1,0,3,10,22
18:54:23.824891,-4,0,0,-1,-5,-3,-3,-4
18:54:23.824891,-4,-1,-2,0,0,-3,-4,-7
18:54:23.846887,9,1,-1,0,-2,1,10,10
18:54:23.847877,-4,0,-1,-5,-2,-2,-4,-2
18:54:23.869864,-3,1,3,1,0,-2,-3,-3
18:54:23.870861,-4,-1,-3,-4,-5,-2,-9,-1
18:54:23.884854,4,4,3,4,5,4,3,2
18:54:23.885853,0,2,3,-1,3,5,-16,10
18:54:23.906860,-8,-1,-2,-3,-4,-5,-4,-16
18:54:23.907840,12,5,1,0,-4,-1,5,2
18:54:23.929826,-4,-3,-1,0,-1,-2,-20,-13
18:54:23.930824,5,0,1,-2,0,8,13,11
18:54:23.944816,0,0,2,4,3,-2,-5,-2
18:54:23.945816,0,-4,-2,-4,-7,-3,-7,-4
18:54:23.967802,0,1,-2,1,3,-2,14,-2
18:54:23.967802,3,0,1,-2,-1,-3,0,1
18:54:23.989788,0,5,0,-1,0,0,0,4
18:54:23.990788,-1,-2,2,-2,-4,1,6,2
18:54:24.004778,-4,-4,-2,0,-2,-4,-5,-2
18:54:24.005778,-4,1,-1,0,0,-2,9,-2
18:54:24.027764,0,-2,2,-1,0,6,-6,-3
18:54:24.027764,-11,-5,-3,-1,0,-3,14,-3
18:54:24.049750,8,-2,-1,0,3,4,-6,-7
18:54:24.050750,-2,4,2,1,-2,-3,3,4
18:54:24.064741,-5,-3,-1,-1,-4,-5,17,2
18:54:24.065741,1,-1,-3,-2,3,-1,1,-5
18:54:24.087727,-1,2,0,4,2,3,2,0
18:54:24.087727,11,3,0,1,-1,0,-3,-4
18:54:24.109713,7,2,-1,-1,0,2,7,8
18:54:24.110714,-5,1,0,-3,-2,-2,0,0
18:54:24.124705,1,2,1,2,2,0,-3,0
18:54:24.125705,1,-4,-3,-2,0,3,-2,0
18:54:24.147689,0,1,0,-1,2,-3,-7,-12
18:54:24.147689,-1,0,1,0,-3,0,-6,1
18:54:24.169675,1,0,1,-2,-1,-3,7,-7
18:54:24.170676,13,3,-2,0,0,0,0,0
18:54:24.184667,-1,-1,-1,1,-1,-3,-5,-3
18:54:24.185667,-10,-2,0,3,-1,2,16,-7
18:54:24.207652,0,-1,-2,0,-1,0,-4,-2
18:54:24.207652,-6,-4,-1,2,5,-2,2,0
18:54:24.229646,-5,-2,-1,-1,-2,0,0,-3
18:54:24.230639,3,2,2,-1,-2,-2,-6,5
18:54:24.244629,2,-2,0,0,0,-1,3,1
18:54:24.245629,-1,-2,-2,0,1,0,-6,-5
18:54:24.267616,2,0,-1,1,-1,-1,1,2
18:54:24.267616,1,2,-1,0,2,-2,9,-2
18:54:24.289655,8,4,-1,-1,1,1,-35,-5
18:54:24.290601,8,1,-2,-2,-2,-5,8,2
18:54:24.304654,0,0,-3,4,-2,-3,-1,-3
18:54:24.305592,-2,-1,-2,-2,2,4,6,13
18:54:24.327579,-1,-2,-1,-3,-3,-3,-7,-1
18:54:24.327579,7,3,1,-1,0,3,1,7
18:54:24.349628,7,0,0,0,-2,1,1,7
18:54:24.350564,-3,-2,-2,0,0,0,-4,-6
18:54:24.364647,-2,-6,-4,-4,-4,-1,-1,3
18:54:24.365555,-2,0,-1,-4,-2,4,7,-4
18:54:24.387542,-2,-3,-1,-1,-3,-2,-5,-2
18:54:24.387542,1,2,-1,-1,-3,-1,2,2
18:54:24.409536,1,0,-1,-2,-1,0,-24,0
18:54:24.410528,-4,-1,-3,-1,-6,-4,2,-3
18:54:24.424528,-4,-2,-3,-3,-3,-4,-3,-8
18:54:24.425517,-3,-1,2,0,0,-2,2,-3
18:54:24.447505,-3,1,-3,-2,-1,-1,-2,-1
18:54:24.448503,15,4,1,-1,-5,-1,12,17
18:54:24.469493,-7,-2,-3,1,0,0,8,-1
18:54:24.470491,-5,-6,0,-2,0,-1,1,-2
18:54:24.485481,0,-3,-2,-1,-4,-6,2,10
18:54:24.492476,-8,-7,-3,-5,-4,1,-5,2
18:54:24.507468,-3,-2,0,0,-2,-1,-24,-6
18:54:24.507468,-1,0,-2,1,-1,-4,5,-9
18:54:24.529454,3,-3,-1,1,-2,-1,2,2
18:54:24.530452,-2,-1,0,0,3,6,6,7
18:54:24.545449,3,-3,-5,-4,0,-3,-3,-4
18:54:24.552439,-2,-2,1,0,-1,0,3,1
18:54:24.567431,4,4,-1,-2,0,0,-6,-4
18:54:24.568429,-1,-1,-4,0,-1,0,5,2
18:54:24.589417,0,-1,0,1,1,0,-13,12
18:54:24.590416,-1,-1,1,-1,-3,2,2,3
18:54:24.612402,3,0,0,1,0,1,-11,-1
18:54:24.613402,0,0,-1,2,3,7,5,3
18:54:24.627393,-6,-2,-2,-4,-3,-3,3,-13
18:54:24.627393,4,1,-2,-2,2,2,8,9
18:54:24.650378,-8,-4,-3,0,-3,1,0,-4
18:54:24.650378,-8,-3,0,-5,-2,-1,-6,-4
18:54:24.672365,-3,-2,-1,-1,2,1,-5,-3
18:54:24.673364,11,6,-1,0,-1,3,10,11
18:54:24.687391,-4,-1,-2,-1,-2,-2,-6,-5
18:54:24.695350,-1,-1,-3,1,2,1,3,4
18:54:24.709346,-6,-2,-1,0,-3,0,-1,-3
18:54:24.710342,-3,1,0,-4,-3,-1,-14,-9
18:54:24.732327,-2,-1,1,-1,1,1,-4,1
18:54:24.733329,-1,-4,-3,1,-4,-4,4,2
18:54:24.747318,-1,0,-1,-1,2,-2,-1,-3
18:54:24.748317,3,-4,-1,-1,-3,-1,-2,-2
18:54:24.770305,-8,-2,-1,-2,-2,-2,-2,-5
18:54:24.770305,-3,-2,-4,-1,3,1,-8,3
18:54:24.800285,4,1,1,4,5,8,22,18
18:54:24.800285,3,1,-4,-2,-3,1,-2,-2
18:54:24.807280,-2,1,0,3,-1,1,4,2
18:54:24.808281,-2,-4,-3,-1,-2,-1,-6,-7
18:54:24.830267,2,1,3,-1,-1,-4,0,12
18:54:24.830267,-2,-1,2,0,2,1,4,1
18:54:24.852253,-2,-2,-1,-4,2,1,-5,-4
18:54:24.853253,9,2,1,0,-2,-1,-2,-2
18:54:24.867243,-4,3,2,0,-2,0,1,0
18:54:24.868244,5,0,2,1,0,-2,-3,-2
18:54:24.897225,0,-2,-2,1,-3,2,1,1
18:54:24.898225,-3,-4,0,-1,-3,-3,3,4
18:54:24.912216,1,-2,-4,0,0,0,1,1
18:54:24.913215,-6,0,-1,3,0,-3,-1,-6
18:54:24.927207,-6,-5,-2,-5,-6,-8,-3,-8
18:54:24.928207,3,-1,-1,0,-2,1,-14,4
18:54:24.950193,0,-4,0,1,-1,0,1,-3
18:54:24.950193,3,2,1,1,-1,-1,1,8
18:54:24.972178,-1,-2,-2,-3,2,-1,-2,-3
18:54:24.973178,-2,-3,-1,-2,-3,-2,-5,-7
18:54:24.987170,2,-1,-2,-5,-1,-3,-3,-2
18:54:24.988170,0,-1,-3,-3,-1,1,-26,3
18:54:25.010159,-3,-3,-4,3,-5,-4,6,-2
18:54:25.011158,5,1,1,1,1,-3,7,4
18:54:25.033141,-3,0,-4,-3,-1,-3,3,1
18:54:25.033141,-6,1,-2,-3,1,0,-9,-9
18:54:25.047132,3,-1,0,-2,0,0,-1,5
18:54:25.048132,-5,-1,0,4,0,1,0,0
18:54:25.070121,-6,-2,1,-4,-3,-4,12,-2
18:54:25.071120,3,-2,-5,0,-5,0,1,-1
18:54:25.093104,-7,-3,-1,-1,-2,-2,-4,-9
18:54:25.093104,1,-1,-3,0,1,2,0,0
18:54:25.115091,-2,-3,-1,-3,-6,-3,-11,-4
18:54:25.115091,3,2,0,0,1,7,6,5
18:54:25.130082,-2,-4,-3,0,1,-5,1,-6
18:54:25.130082,-11,-5,-1,0,2,-1,-2,-7
18:54:25.152066,-5,-4,-4,-3,0,-4,-1,-1
18:54:25.153066,2,0,0,0,2,3,0,3
18:54:25.167099,0,-2,0,-1,-3,0,4,1
18:54:25.168057,-4,1,0,-4,2,1,-5,-2
18:54:25.190044,-1,-2,-2,-3,-2,-5,-2,1
18:54:25.190044,2,0,1,1,0,1,-1,1
18:54:25.213031,3,4,-3,-1,-2,-5,22,1
18:54:25.220024,-3,2,2,-2,0,4,8,-5
18:54:25.230019,1,5,4,2,4,-5,2,6
18:54:25.230019,-8,-3,-1,6,22,4,6,2
18:54:25.250006,-2,0,-1,5,5,-2,-3,-3
18:54:25.250006,-3,-3,-3,-2,-2,-1,-7,-6
18:54:25.272992,0,0,-1,-2,-3,-2,-4,6
18:54:25.272992,-3,0,-2,-2,-3,-1,2,4
18:54:25.288983,1,-3,-1,0,-1,-2,5,2
18:54:25.288983,-1,1,0,5,5,3,-3,-7
18:54:25.309969,-2,-4,-2,-1,-3,-2,0,-1
18:54:25.309969,-4,-3,-1,0,-2,-1,0,-6
18:54:25.331959,3,-7,-3,-5,-4,1,-21,1
18:54:25.332956,10,7,2,1,1,-3,2,1
18:54:25.354942,0,1,1,1,0,-1,-2,-2
18:54:25.354942,4,0,1,-1,4,-1,3,13
18:54:25.369933,-6,-1,-1,-1,-5,2,-9,-3
18:54:25.370931,-3,-3,-1,-1,1,-3,0,-5
18:54:25.391923,-4,-4,0,-2,2,-3,-2,0
18:54:25.392918,-1,-1,1,-4,-3,-7,-3,-1
18:54:25.406916,2,1,4,-2,-1,3,9,12
18:54:25.407910,-1,0,0,-3,-2,2,2,2
