timestamp,emg1,emg2,emg3,emg4,emg5,emg6,emg7,emg8
18:58:47.669259,-1,-3,-1,-2,0,-4,-13,-6
18:58:47.683250,2,-2,-1,0,-4,1,8,0
18:58:47.684248,0,-1,-1,-3,-2,-2,2,-1
18:58:47.706232,-4,-3,-2,0,0,-1,2,-5
18:58:47.706232,-9,-4,-5,-4,-1,-3,-12,-16
18:58:47.720228,-3,-1,1,-1,2,-1,0,0
18:58:47.721224,-1,0,1,-1,-1,-1,-2,-6
18:58:47.743214,-9,-8,-3,-1,0,-1,-6,-6
18:58:47.744210,-5,1,1,0,0,1,0,0
18:58:47.766197,-7,-5,-5,-3,-1,-3,-9,-3
18:58:47.766197,-4,-3,-1,-2,-1,-5,-5,-10
18:58:47.781186,2,-1,-2,-2,-1,-2,-20,0
18:58:47.781186,-6,1,0,-1,-3,-2,0,-4
18:58:47.803174,-1,0,2,-2,1,-1,-4,-5
18:58:47.804171,4,5,1,2,-1,5,6,4
18:58:47.826157,-4,-3,-1,-3,0,-3,2,12
18:58:47.826157,-2,-3,-1,0,-1,-3,-2,-5
18:58:47.841150,3,1,1,0,2,2,3,20
18:58:47.841150,-4,-4,-3,-3,0,1,-1,-5
18:58:47.863136,-5,0,0,-2,2,-3,-3,-2
18:58:47.864136,-1,-2,-1,-3,-1,-3,-8,4
18:58:47.886124,-3,-1,-2,1,1,1,-1,-5
18:58:47.887123,3,4,-1,-1,0,-5,-10,-9
18:58:47.901115,3,2,0,-1,-1,1,-3,12
18:58:47.902111,1,1,0,-1,0,-1,4,-1
18:58:47.931096,-3,1,0,-3,-3,-1,-4,-5
18:58:47.932096,-3,-4,-1,-2,1,1,0,-5
18:58:47.946084,0,-1,1,0,0,3,-8,2
18:58:47.947087,-7,-3,1,-1,-1,-3,-8,-1
18:58:47.961078,-3,0,-4,-3,-1,-2,0,0
18:58:47.969073,-1,3,0,-4,-2,0,2,1
18:58:47.984061,-2,-4,1,-3,-2,-1,-4,-4
18:58:47.984061,-2,1,0,-3,-1,0,15,-5
18:58:48.006050,-1,-2,-1,1,0,-1,-15,-13
18:58:48.007048,1,0,-1,-1,-1,-1,3,-1
18:58:48.021041,-1,1,0,0,-2,-1,2,0
18:58:48.029033,-2,-3,1,-1,0,-2,-24,-14
18:58:48.044023,-1,-2,-1,3,0,5,9,8
18:58:48.044023,0,0,1,-3,-4,-3,-4,-5
18:58:48.066013,-3,1,2,-1,3,1,-4,0
18:58:48.067009,-7,-2,-1,-3,-3,-4,10,-9
18:58:48.081000,-3,-2,3,0,-4,-4,-7,-13
18:58:48.088998,2,3,1,-4,-1,-1,-6,-7
18:58:48.103986,4,2,-3,-2,-1,-1,2,-9
18:58:48.103986,6,3,0,2,2,5,-17,20
18:58:48.125972,-1,-2,1,1,1,-4,-6,-8
18:58:48.126972,0,0,1,-3,3,-3,-3,-4
18:58:48.148960,-5,1,-4,0,-1,1,-17,-6
18:58:48.148960,-2,-2,-1,-3,-1,2,2,1
18:58:48.163949,-2,2,2,1,0,-1,-2,-1
18:58:48.163949,-3,-3,-1,3,1,-9,-9,-20
18:58:48.185938,23,7,-2,0,0,3,4,22
18:58:48.186935,-5,-1,-2,-1,-5,-6,-1,-8
18:58:48.200928,-1,-2,-1,-4,-2,-1,5,-3
18:58:48.208921,13,6,0,-1,-3,3,15,15
18:58:48.223912,7,-1,-3,-2,-2,-3,8,1
18:58:48.223912,1,2,0,-4,2,1,10,5
18:58:48.245901,-3,1,0,-1,0,2,1,-5
18:58:48.246898,-4,-1,-1,-2,-1,-2,-5,-7
18:58:48.260889,-1,-3,-4,-1,0,-2,-4,-2
18:58:48.268887,-1,0,0,-1,-1,-3,-1,-1
18:58:48.283875,0,-3,1,1,-1,-1,2,-1
18:58:48.283875,-5,-2,-3,-2,-5,-2,-3,-5
18:58:48.305864,-3,-2,1,2,-1,0,-19,-8
18:58:48.306863,1,-2,-3,1,0,3,20,9
18:58:48.320853,5,4,-1,-1,-3,1,7,5
18:58:48.328850,-5,0,-2,-1,2,-1,-1,-6
18:58:48.343837,4,-1,-2,-1,0,0,-14,11
18:58:48.343837,1,-2,-1,-1,-1,-1,2,-3
18:58:48.373819,2,0,0,2,-2,4,-2,-1
18:58:48.373819,-1,-2,-3,-1,-1,-3,0,-6
18:58:48.380815,-3,-3,-1,-2,0,0,-3,0
18:58:48.388809,2,0,-4,-2,-2,-3,-23,9
18:58:48.403801,1,-3,-3,-1,0,0,5,1
18:58:48.403801,0,1,-2,-1,-3,-1,1,1
18:58:48.425788,-5,-1,0,0,-2,1,-4,-5
18:58:48.426786,-3,-1,0,-1,0,-3,-18,-9
18:58:48.441780,12,2,0,-2,-1,3,-5,18
18:58:48.448775,-7,-1,-4,-3,0,-3,0,-6
18:58:48.463766,-9,-6,-1,-5,-2,-1,4,-8
18:58:48.464765,-3,2,-1,-2,-3,-1,-3,-6
18:58:48.486749,-2,-1,-3,-1,-2,-2,1,-1
18:58:48.486749,-1,0,-3,-1,2,-1,-1,0
18:58:48.501741,-2,1,0,0,-1,-5,-5,-2
18:58:48.508739,-1,-1,0,-2,0,-1,-1,2
18:58:48.523726,1,4,-1,0,-2,1,-1,1
18:58:48.523726,-1,0,-1,-2,-3,-1,0,-4
18:58:48.545715,-3,0,-1,-2,-1,0,-14,-12
18:58:48.546712,-6,-5,-2,-1,-5,3,-16,2
18:58:48.561705,-5,0,1,0,1,-6,1,-11
18:58:48.568701,-2,-3,1,-1,-3,-1,0,0
18:58:48.583692,2,3,1,3,1,2,1,0
18:58:48.583692,-5,-3,-1,-3,-7,0,2,-3
18:58:48.605677,1,1,1,-3,3,4,-13,-1
18:58:48.606677,4,0,-1,-1,-1,2,1,-1
18:58:48.628664,-1,-1,-2,-2,-3,-1,-3,-5
18:58:48.629666,-1,1,0,2,-1,2,-1,-3
18:58:48.643655,1,-6,-1,1,-1,-1,0,-5
18:58:48.644651,-1,3,-1,-2,2,0,6,-5
18:58:48.665637,12,3,0,1,-1,0,32,10
18:58:48.666641,4,3,3,1,-3,0,0,-4
18:58:48.688625,0,-3,-1,1,1,0,2,0
18:58:48.689624,5,2,0,-1,2,-1,4,5
18:58:48.703617,-3,-3,-1,1,-2,2,-7,1
18:58:48.703617,10,1,2,0,-2,-1,8,18
18:58:48.725601,4,1,-1,1,4,1,-3,-6
18:58:48.726602,-5,1,2,1,1,-2,2,-6
18:58:48.748590,4,2,-5,-1,-1,-2,4,6
18:58:48.749586,-3,-3,-2,1,-4,-1,5,2
18:58:48.763580,0,1,1,-1,1,-1,0,2
18:58:48.764577,1,-1,-2,0,0,-3,2,5
18:58:48.786563,-2,-3,-4,-4,0,-2,-14,0
18:58:48.786563,-10,-4,2,2,2,-2,-29,1
18:58:48.808549,1,-3,-1,1,-2,-3,1,0
18:58:48.809549,-4,-5,-2,1,0,-3,2,-7
18:58:48.823543,-4,1,-1,-3,-4,-3,-7,2
18:58:48.824542,-1,-1,1,0,-4,-1,1,-2
18:58:48.846528,-2,-1,-3,0,-2,-3,0,4
18:58:48.846528,-3,1,0,-4,-1,3,1,-4
18:58:48.868515,0,-1,1,1,3,1,-1,-1
18:58:48.869514,-4,-2,-2,-4,-1,-4,-5,-3
18:58:48.883506,1,2,2,-4,0,-1,-3,5
18:58:48.884505,6,-1,0,-1,0,1,2,-2
18:58:48.906489,3,-3,-4,-2,-1,-1,-3,0
18:58:48.906489,0,0,1,0,-4,-2,-2,-6
18:58:48.928477,-2,-3,-1,-1,-2,-3,12,-9
18:58:48.929477,5,-1,-1,2,3,2,-2,1
18:58:48.951460,-2,0,0,-2,-2,-2,8,8
18:58:48.951460,-4,-1,-1,-1,1,0,0,-1
18:58:48.966454,-4,-4,-1,0,1,3,-20,-4
18:58:48.966454,0,1,-1,-2,-2,-2,6,4
18:58:48.988441,-1,-4,-3,-2,-1,-2,2,-1
18:58:48.989437,-1,-3,-2,2,-4,-3,-1,-1
18:58:49.003431,12,7,-2,-3,-1,-3,-4,-7
18:58:49.004428,0,0,2,0,-4,-2,4,5
18:58:49.026414,-2,0,1,1,1,-1,-2,3
18:58:49.026414,-1,-4,-2,0,-3,-1,1,-1
18:58:49.048404,0,1,-1,-1,2,0,1,-3
18:58:49.049400,-2,1,-1,0,-2,0,0,-3
18:58:49.063394,-4,0,0,0,-1,-1,-1,0
18:58:49.064390,-5,-3,-3,0,-4,-4,8,0
18:58:49.086379,-2,2,1,0,3,-1,-6,-6
18:58:49.086379,3,-2,-1,-5,-1,1,-18,11
18:58:49.108363,1,-4,0,1,-2,-1,5,-3
18:58:49.109363,-9,0,-2,0,-1,-3,1,-14
18:58:49.123355,-1,0,-3,-3,-5,0,0,-5
18:58:49.124358,-1,0,-1,0,3,0,-1,0
18:58:49.146339,-5,0,1,0,-3,-2,-3,-1
18:58:49.146339,-5,-3,-3,-1,-3,0,0,0
18:58:49.168329,-4,0,-2,0,-1,-2,7,-5
18:58:49.169326,1,0,-1,0,5,1,2,-1
18:58:49.183316,-3,-9,-5,-3,-2,0,-2,-2
18:58:49.184317,0,-1,1,2,0,0,0,1
18:58:49.206302,-2,-1,-1,1,-1,-2,-2,-7
18:58:49.206302,-2,-1,-1,-3,-1,2,16,6
18:58:49.228288,-5,1,1,3,0,-1,-3,-4
18:58:49.229288,-6,5,3,1,2,6,0,-17
18:58:49.243280,1,0,1,0,0,2,0,-6
18:58:49.251278,0,-2,-1,-4,-4,-4,-8,-12
18:58:49.266266,0,-1,0,-1,0,1,5,7
18:58:49.266266,0,-1,0,0,2,-1,-4,-1
18:58:49.288254,-4,0,-2,0,1,-3,-3,-5
18:58:49.289251,-7,-1,0,-1,0,-2,-17,-7
18:58:49.303243,-1,3,-1,-1,-2,0,10,4
18:58:49.311238,-5,-4,1,-3,2,-2,0,-4
18:58:49.326231,-6,-3,-3,0,-3,0,-2,-3
18:58:49.327227,8,3,-3,-4,-3,0,-4,-9
18:58:49.348216,2,-3,0,-1,4,8,-3,4
18:58:49.349218,-6,-3,-1,-2,-3,-1,-3,-13
18:58:49.371203,-4,2,0,-1,1,2,6,13
18:58:49.372203,1,-1,1,1,-2,-3,11,-10
18:58:49.386194,4,-1,-1,-1,0,2,1,-4
18:58:49.386194,-1,2,-2,-1,-3,-3,-6,4
18:58:49.408177,5,-1,-1,0,-3,3,-1,-2
18:58:49.409177,-10,-9,-2,0,-2,-4,-3,0
18:58:49.431166,-2,-3,-4,0,1,-3,-3,-4
18:58:49.432164,-1,-1,-1,-3,-4,-2,-1,0
18:58:49.446157,7,2,-2,-1,1,-1,-2,1
18:58:49.447156,-3,-3,0,1,-4,0,-1,-2
18:58:49.476138,-4,-5,-2,-3,1,3,0,-1
18:58:49.477138,-5,-6,1,-2,0,-1,-1,-2
18:58:49.491129,10,8,-3,1,0,0,2,2
18:58:49.492127,-7,-3,-2,2,-1,5,1,1
18:58:49.506120,-2,1,0,-2,3,-1,0,0
18:58:49.506120,-6,-4,-1,-1,0,-7,19,-17
18:58:49.528104,12,5,5,2,2,5,1,-4
18:58:49.529105,16,5,1,1,5,12,23,53
18:58:49.551092,-3,-2,-2,2,-1,-2,0,-3
18:58:49.552088,11,7,-4,2,-2,-1,-6,-9
18:58:49.566083,-1,0,4,0,4,6,7,12
18:58:49.567082,0,-2,-1,-2,-3,-4,-4,-7
18:58:49.589068,2,0,0,1,1,3,-20,-5
18:58:49.589068,-4,-2,1,1,-1,-2,-21,-19
18:58:49.611055,18,5,2,0,2,12,15,38
18:58:49.612053,1,4,2,0,-1,-3,-3,-13
18:58:49.626043,-1,-4,2,0,-1,3,0,-5
18:58:49.627043,-3,-2,-4,-4,1,0,-1,-1
18:58:49.649031,1,-3,-1,0,2,-1,0,5
18:58:49.649031,-1,1,-4,-2,-5,-2,-3,-1
18:58:49.671014,-5,-2,-3,-3,-2,1,-3,-4
18:58:49.672013,-1,2,1,-1,-1,-2,-3,-9
18:58:49.686008,4,-2,1,0,-1,-1,8,21
18:58:49.687008,-1,0,0,1,3,2,-2,-2
18:58:49.708993,-4,-4,-2,-1,0,1,10,-2
18:58:49.708993,0,0,0,-2,-4,-3,-13,-10
18:58:49.730980,-1,-4,-4,-2,-1,0,2,4
18:58:49.731977,1,-4,0,1,-4,-6,-5,-3
18:58:49.745971,-9,0,-1,0,-2,-2,-13,6
18:58:49.746970,-3,-5,0,-4,-13,-1,2,-6
18:58:49.768954,-6,-4,-2,-4,8,-3,-4,-8
18:58:49.768954,-5,-2,-4,-5,1,-1,-13,4
18:58:49.790943,-5,-3,-1,-2,1,0,-7,-11
18:58:49.791940,2,0,-3,1,-4,1,6,4
18:58:49.805934,-1,-1,0,1,0,0,-1,-7
18:58:49.806930,-1,-2,-2,-1,-1,-2,-23,-16
18:58:49.843908,1,1,1,-2,-2,3,13,7
18:58:49.843908,1,2,2,5,-1,-1,3,-1
18:58:49.850906,7,4,0,-5,4,-2,-9,-9
18:58:49.851905,-1,0,0,-3,-1,0,4,1
18:58:49.865896,10,4,0,-2,-1,-4,-25,1
18:58:49.866894,-13,-8,0,-1,-5,-7,-8,-15
18:58:49.888880,-1,-2,-2,0,1,1,-7,4
18:58:49.888880,-2,0,1,2,0,-3,14,6
18:58:49.910869,3,-2,1,-3,-1,-1,6,7
18:58:49.911867,0,-1,1,-2,-6,0,7,14
18:58:49.925859,-5,-6,-4,0,1,-3,-5,-8
18:58:49.926856,-3,2,-1,0,-1,-4,-9,2
18:58:49.948842,-9,0,-2,-1,-2,-1,-7,-21
18:58:49.949843,3,2,2,0,0,3,-1,11
18:58:49.970831,-1,-1,1,-4,-4,-1,0,-4
18:58:49.971828,-1,-3,-2,-1,3,5,8,6
18:58:49.985822,-3,0,0,-1,0,-4,-7,-10
18:58:49.986821,1,1,0,1,-3,-3,-15,4
18:58:50.008805,-5,-2,-3,-1,-3,-1,-2,-7
18:58:50.008805,-2,-3,1,1,0,-5,7,2
18:58:50.030794,-1,-2,1,-3,-1,3,6,6
18:58:50.031793,4,2,1,3,-2,-3,0,-4
18:58:50.045785,6,1,-1,1,-4,1,6,14
18:58:50.046781,-6,-5,0,-2,0,0,-4,-9
18:58:50.068770,1,-3,0,0,0,0,-3,-4
18:58:50.068770,-5,-3,-1,0,-3,-1,0,-5
18:58:50.090757,-1,1,-2,-2,1,0,5,1
18:58:50.091754,0,0,-1,-9,-5,-1,1,-4
18:58:50.105747,1,1,-1,1,0,3,-1,0
18:58:50.106747,-1,-1,-1,-6,-5,-3,-3,-3
18:58:50.128733,0,-3,0,0,2,-2,-1,2
18:58:50.129732,-1,1,0,8,49,-1,1,0
18:58:50.158716,0,-1,-3,-21,-7,1,-2,0
18:58:50.159711,1,2,0,14,15,7,-1,3
18:58:50.165710,-4,-3,-2,-14,0,0,-1,-3
18:58:50.166707,-1,-2,-1,4,-1,0,1,0
18:58:50.188696,-8,0,0,-1,-2,-4,0,2
18:58:50.188696,3,3,5,6,-3,-3,-1,3
18:58:50.210681,-1,-2,0,4,4,-3,1,-2
18:58:50.211681,-3,-3,0,-4,-6,1,2,-3
18:58:50.233669,-1,-2,-1,-3,-4,-1,-1,-1
18:58:50.233669,-3,0,0,-1,-3,1,-1,1
18:58:50.248659,4,0,1,2,-3,1,-1,3
18:58:50.248659,2,2,3,5,3,2,0,2
18:58:50.270644,-2,-2,1,9,4,7,2,3
18:58:50.271644,-9,-2,-1,4,-2,1,-2,0
18:58:50.293631,9,4,-3,0,4,3,0,9
18:58:50.294630,-1,-3,1,-2,-3,-5,1,-1
18:58:50.308622,5,-3,-1,-3,-5,-6,-4,-1
18:58:50.309619,-4,-2,-1,-1,-2,2,-14,-10
18:58:50.331607,8,3,1,0,1,1,-4,10
18:58:50.331607,-5,-3,-4,-6,-42,-8,-3,-13
18:58:50.353594,-3,1,0,4,13,-1,-1,1
18:58:50.354594,0,3,2,7,9,5,3,-1
18:58:50.368585,7,6,-1,-3,-4,3,3,1
18:58:50.369582,-4,-3,2,-2,-2,-3,-2,-6
18:58:50.391567,0,0,-4,-5,0,4,2,2
18:58:50.391567,-5,-2,-3,0,-3,-6,-6,-3
18:58:50.413557,0,-2,0,5,-4,-5,1,-1
18:58:50.414555,0,0,0,10,-38,2,1,1
18:58:50.428548,-1,-2,-1,3,33,-1,-1,-3
18:58:50.429547,-1,-3,-2,-9,-1,-1,-1,-1
18:58:50.451533,-3,-5,-7,-4,-5,-4,-1,-1
18:58:50.458529,-2,-3,-6,-14,-7,-3,0,-4
18:58:50.473520,3,3,-6,8,7,4,2,2
18:58:50.474519,-7,-4,4,5,2,-7,-4,-5
18:58:50.488510,1,1,5,-6,3,6,5,1
18:58:50.489507,7,9,7,-3,-30,22,3,6
18:58:50.511495,-4,-6,-8,22,60,-6,-3,2
18:58:50.512492,3,12,2,-59,-128,-21,1,1
18:58:50.533483,-5,-6,2,52,127,-7,-5,-4
18:58:50.534481,6,0,-37,-5,-97,-76,8,7
18:58:50.548473,-22,-30,-8,-44,-128,58,-11,-21
18:58:50.549471,9,10,21,-109,-128,-117,9,5
18:58:50.578455,-9,-16,-24,-128,94,22,-8,-7
18:58:50.579452,36,80,127,127,-128,12,32,20
18:58:50.593445,-16,-70,-122,-128,127,127,-5,-2
18:58:50.594441,-1,-8,14,-128,-128,-33,-30,-16
18:58:50.608436,-73,-100,-71,-128,-128,-128,-30,-41
18:58:50.609432,-48,-82,-27,126,-128,103,-45,-13
18:58:50.631419,50,73,-76,-54,127,-69,31,41
18:58:50.631419,-9,-23,-53,-128,-89,-21,-6,-24
18:58:50.653408,-9,-34,-50,-128,-128,-128,-16,-20
18:58:50.654405,-49,-49,-45,-90,39,-47,-21,-42
18:58:50.668399,-11,11,80,-128,32,29,-5,-16
18:58:50.669398,18,17,35,127,127,119,3,5
18:58:50.691382,-26,-25,-46,-128,-128,-128,-39,-18
18:58:50.691382,-12,9,-21,-117,-128,66,-4,-14
18:58:50.713371,31,28,85,127,-40,-52,21,24
18:58:50.714368,12,-39,-80,85,127,127,27,19
18:58:50.728362,14,40,-6,-128,-128,-128,-13,12
18:58:50.729361,-40,-51,-7,-128,-128,3,-7,-29
18:58:50.751347,-37,-105,-128,-128,127,127,6,-12
18:58:50.751347,-45,-87,-26,-125,-128,-128,-16,-36
18:58:50.774332,-15,-62,-66,115,127,61,-46,-21
18:58:50.774332,22,42,6,-88,-63,-88,-66,12
18:58:50.788322,28,127,74,-4,127,30,6,9
18:58:50.789321,-20,-58,-45,-128,26,120,45,-1
18:58:50.811307,-34,-79,-49,127,97,-128,24,-19
18:58:50.812308,19,50,72,-35,34,127,50,6
18:58:50.833296,12,43,36,127,-128,-77,-6,0
18:58:50.834293,23,22,-8,-8,-26,-3,0,10
18:58:50.848285,-14,-118,-128,127,127,127,13,-8
18:58:50.856282,31,97,77,-128,-128,-128,-24,17
18:58:50.871269,-20,-38,-46,-33,-128,8,-7,-10
18:58:50.872269,10,-4,17,38,-112,-100,-7,3
18:58:50.894255,18,-5,-4,127,127,11,2,16
18:58:50.894255,-23,-110,-93,31,127,90,6,-5
18:58:50.908247,-5,11,22,89,8,-52,-12,-6
18:58:50.916245,1,-33,-102,-128,-128,-43,-4,8
18:58:50.931236,-25,-76,-31,85,127,127,27,-4
18:58:50.931236,24,82,72,-110,-128,-128,-25,2
18:58:50.953220,-20,-15,-9,-128,-128,5,-11,-19
18:58:50.954219,-66,-128,-128,-128,101,-17,-21,-24
18:58:50.969213,9,-31,-125,-116,-128,-128,1,11
18:58:50.976205,38,104,79,-128,46,74,13,12
18:58:50.991196,-1,-36,-47,106,127,127,23,10
18:58:50.992195,5,19,7,65,127,127,6,2
18:58:51.014182,23,96,65,-76,127,127,-9,-12
18:58:51.014182,-34,-74,-94,-128,-128,-27,-12,-11
18:58:51.029172,4,6,-26,-128,-128,-128,-5,-2
18:58:51.036171,2,3,2,-128,90,86,5,2
18:58:51.051162,-70,-128,-128,-15,127,127,25,-28
18:58:51.052157,22,67,58,-8,-128,-128,-8,7
18:58:51.074144,8,14,17,-7,127,98,19,10
18:58:51.074144,16,61,65,-48,-128,68,13,4
18:58:51.089135,-4,13,18,-121,-121,2,-8,-1
18:58:51.096134,1,4,0,81,-99,15,-14,-7
18:58:51.111124,12,60,76,-9,-107,-87,1,4
18:58:51.112126,-21,-33,-21,108,-8,127,8,-9
18:58:51.134108,14,1,-11,-38,127,127,21,19
18:58:51.134108,-11,-15,14,14,127,127,19,-1
18:58:51.149097,-12,-25,-32,-128,-128,-112,-21,-6
18:58:51.156096,6,21,76,47,41,127,10,-5
18:58:51.171087,10,7,5,-46,-121,36,-6,9
18:58:51.172085,-5,-4,-22,-64,-111,-128,-16,-2
18:58:51.194070,-1,-9,-12,20,-101,1,7,0
18:58:51.194070,23,64,57,-14,-119,-86,-4,7
18:58:51.209061,2,18,35,-128,-77,10,14,3
18:58:51.216059,9,16,13,-8,-128,-128,-6,10
18:58:51.231050,7,-5,-17,119,91,87,-3,6
18:58:51.232047,11,23,22,39,-128,-58,-10,0
18:58:51.254032,29,112,110,-59,-128,-103,-9,6
18:58:51.254032,-90,-128,-128,-102,-128,-63,-35,-43
18:58:51.269025,-1,17,17,14,-128,-128,-1,-1
18:58:51.276022,23,62,47,41,-128,-105,5,12
18:58:51.291013,0,-10,-47,-128,-128,-106,-18,0
18:58:51.292010,-9,-27,-61,-128,-128,55,-4,-6
18:58:51.320994,-6,-14,-28,-128,-109,-2,-12,-6
18:58:51.321991,15,48,40,-128,-128,-42,-2,9
18:58:51.328989,0,-4,2,-74,-72,11,-4,-2
18:58:51.335985,4,21,8,-128,113,20,4,0
18:58:51.350975,-8,-17,5,12,46,50,-5,-4
18:58:51.351977,9,17,6,-1,-22,-117,4,8
18:58:51.373960,4,15,15,-16,-70,-23,-3,0
18:58:51.373960,-3,2,-1,-12,-113,-24,-4,-1
18:58:51.388952,3,-1,5,3,6,-29,0,-1
18:58:51.395947,0,0,1,-9,-17,-6,-2,-3
18:58:51.418933,-2,0,0,-1,3,-1,-1,1
18:58:51.425929,10,-3,-4,6,8,2,8,3
18:58:51.433920,-7,1,-1,-1,-7,-16,-9,-31
18:58:51.433920,-88,-21,1,3,7,2,12,-30
18:58:51.455910,-128,-14,10,11,19,15,110,69
18:58:51.456907,122,-57,-26,-26,2,40,127,127
18:58:51.470900,17,127,-28,-47,-62,-108,-128,121
18:58:51.478896,-2,-118,-51,-32,-42,-55,-128,-128
18:58:51.493884,127,-42,44,31,15,36,-128,13
18:58:51.493884,-71,1,-43,-39,-50,-63,-128,-128
18:58:51.508877,-71,43,47,39,80,65,127,92
18:58:51.515872,127,22,-35,-63,-53,-17,-75,108
18:58:51.523868,37,46,28,25,29,41,-128,-12
18:58:51.530862,-49,-5,9,22,9,-2,106,-71
18:58:51.545852,-10,16,2,17,5,-23,-14,-29
18:58:51.553847,-51,-23,39,127,127,60,127,-3
18:58:51.568840,127,25,-30,-123,123,17,-49,127
18:58:51.575833,-49,-45,-23,37,127,70,3,-78
18:58:51.583831,-52,-22,-8,-18,-128,-7,-4,-29
18:58:51.590823,19,32,13,11,127,15,-37,-5
18:58:51.613812,-61,-27,-2,70,29,-55,-22,-45
18:58:51.613812,-70,-42,-39,-36,1,15,1,-2
18:58:51.636797,-70,-26,-40,-128,-128,-116,7,-53
18:58:51.636797,-76,16,29,35,-128,-67,-128,26
18:58:51.651787,-77,-55,-45,-128,-128,-123,-67,-128
18:58:51.658782,6,-14,14,75,82,-82,-76,-119
18:58:51.680768,13,-13,11,9,38,-2,-54,127
18:58:51.681770,-42,-36,-22,-39,-45,-39,77,-116
18:58:51.696758,-4,-28,-16,-49,111,-84,127,-24
18:58:51.696758,-45,-12,22,-7,-22,-21,127,-51
18:58:51.718748,4,-18,30,28,59,41,127,-16
18:58:51.718748,127,75,13,3,-128,-76,79,85
18:58:51.733738,4,8,42,116,46,7,11,-5
18:58:51.734736,-24,-30,-12,-11,127,39,-85,30
18:58:51.755724,12,6,2,27,74,-7,-32,51
18:58:51.756721,-4,2,31,-128,-128,42,42,52
18:58:51.771714,17,13,-16,71,16,0,25,101
18:58:51.778710,16,21,-4,-4,-14,67,-37,-1
18:58:51.793701,-27,-9,11,-122,-128,-36,35,-29
18:58:51.794701,-1,-7,-7,28,127,-31,37,40
18:58:51.816685,4,-5,19,-9,127,96,-4,-3
18:58:51.816685,-47,-20,-1,51,-45,35,14,27
18:58:51.831678,-84,-38,-51,-50,-36,-69,-103,-66
18:58:51.846665,54,38,-17,-128,-128,-5,127,-21
18:58:51.853664,39,-14,4,86,84,43,32,29
18:58:51.853664,20,-8,-26,62,-128,12,-94,127
18:58:51.876646,-57,-28,-3,22,103,15,-44,-69
18:58:51.876646,-18,-4,-23,-73,-128,-13,-1,-30
18:58:51.891637,9,70,3,-9,-34,58,2,95
18:58:51.898636,-58,-50,-2,61,46,-1,-128,-65
18:58:51.913627,2,20,5,-7,-72,-22,-20,21
18:58:51.914628,-122,-87,-10,-21,-128,-61,-74,-105
18:58:51.936609,-5,9,19,-41,127,24,99,33
18:58:51.936609,-43,-43,-24,-5,-49,-102,-128,4
18:58:51.951603,18,13,11,82,-93,7,8,-24
18:58:51.958598,5,15,21,27,101,43,29,35
18:58:51.973590,-64,-21,1,-16,-10,8,-20,0
18:58:51.974588,10,10,-19,-78,-128,-66,-113,-8
18:58:51.996572,-27,-17,-5,13,57,-3,-40,-26
18:58:51.996572,46,18,-4,-23,127,54,-6,23
18:58:52.011566,-7,-7,-1,-36,93,-2,20,-2
18:58:52.018561,-22,-9,-4,-5,15,-16,-10,-33
18:58:52.033552,11,-3,15,-25,54,44,16,29
18:58:52.034552,10,2,2,-12,-24,6,1,2
18:58:52.056535,-8,-3,5,26,127,9,53,-31
18:58:52.056535,18,8,7,72,33,14,4,21
18:58:52.071525,6,9,-3,0,-42,-11,-16,5
18:58:52.078524,-4,-8,-1,0,-43,-40,-49,-9
18:58:52.093515,57,32,6,-19,-4,23,6,58
18:58:52.094514,-13,-9,-7,-25,-128,-39,-59,23
18:58:52.116498,-24,-12,-6,-15,28,-19,-26,-39
18:58:52.116498,9,-2,-4,-10,-23,13,13,37
18:58:52.131491,-10,-1,-1,-8,-22,-2,3,26
18:58:52.138487,-3,1,1,20,2,-2,0,-12
18:58:52.153474,-3,-2,-9,-47,-93,-3,0,-2
18:58:52.154474,-7,-1,0,32,127,-16,-3,-5
18:58:52.176460,-14,-5,-1,-18,35,-9,-43,-30
18:58:52.176460,19,5,4,-1,-79,8,43,15
18:58:52.191454,-4,4,13,56,91,1,3,-15
18:58:52.198450,-5,-7,-5,-24,-45,15,-3,-9
18:58:52.213441,27,5,-3,-7,-21,-2,7,9
18:58:52.214438,1,0,3,5,-5,3,1,-5
18:58:52.236423,4,5,-3,-25,-40,8,14,32
18:58:52.236423,-11,-8,-5,-1,-8,-2,-10,-11
18:58:52.251415,-1,-3,-4,0,5,3,7,0
18:58:52.259410,8,0,-2,-10,-128,-18,18,17
18:58:52.273402,2,2,0,18,67,0,2,-7
18:58:52.274405,0,-3,-4,-10,-15,-1,21,-13
18:58:52.296387,-13,-2,-3,-31,-5,8,1,-6
18:58:52.297388,-4,1,-2,-29,4,-17,-9,-8
18:58:52.311378,-10,-10,-4,9,29,0,-72,-5
18:58:52.319373,6,2,-2,-11,-29,-9,0,3
18:58:52.333365,1,0,1,-2,-10,1,4,1
18:58:52.334363,-4,-1,-1,14,-19,-5,7,3
18:58:52.356350,-10,-5,-1,3,6,-4,-24,-8
18:58:52.356350,7,6,-1,-6,-5,10,9,8
18:58:52.378335,-5,-4,-3,-4,-5,-14,-16,-10
18:58:52.379336,0,-4,-3,-2,-3,0,1,-4
18:58:52.393326,-2,1,-3,-3,-4,-4,-1,-5
18:58:52.394326,0,1,-1,-1,-1,-3,-2,2
18:58:52.416312,1,-3,-3,-2,-2,0,1,-3
18:58:52.416312,-2,-4,-2,-3,2,1,0,-5
18:58:52.438297,-5,1,1,3,1,-1,-7,-7
18:58:52.438297,-1,-3,-3,-36,-103,-8,0,0
18:58:52.453288,-6,-6,-3,5,28,3,-3,-4
18:58:52.453288,-2,3,0,-6,-7,-3,-2,0
18:58:52.476275,-1,1,1,-1,-3,-3,-3,-1
18:58:52.476275,-2,0,-4,-2,-7,5,-1,8
18:58:52.498261,0,1,-3,0,1,-1,4,7
18:58:52.499260,-6,-3,-2,-1,-1,-4,-21,-8
18:58:52.513253,4,0,0,-7,3,-4,-20,10
18:58:52.521247,7,2,4,3,-1,-6,5,-2
18:58:52.536238,-7,-4,-4,-9,-7,0,-3,-15
18:58:52.536238,1,-3,-5,-5,-7,2,33,1
18:58:52.558224,-3,-5,0,0,1,-3,-5,-5
18:58:52.559224,-2,-3,0,-2,-4,-2,16,3
18:58:52.573215,3,1,2,-2,-1,-2,-5,6
18:58:52.574215,-8,-2,-4,-1,-4,-3,-8,-15
18:58:52.596205,-1,3,-1,-1,-3,-2,-8,1
18:58:52.596205,-3,-3,0,-5,-1,1,3,-8
18:58:52.618185,2,0,1,4,8,4,-12,-2
18:58:52.619186,1,-4,-1,2,3,-4,-7,-11
18:58:52.633176,-3,-3,-3,-4,-3,2,1,-3
18:58:52.634179,-3,-1,1,8,0,3,3,-5
18:58:52.656165,-8,-9,-4,-6,-3,-2,2,5
18:58:52.656165,-1,-3,-2,-2,-7,1,-5,4
18:58:52.679151,-5,-6,-3,-5,-3,-2,-10,-7
18:58:52.679151,-8,-7,0,-2,-2,-5,-2,3
18:58:52.694143,5,-1,-3,0,-1,-3,6,8
18:58:52.701138,-4,-3,-2,-3,-4,-2,-3,-4
18:58:52.716127,0,-1,-3,-5,-11,-2,-1,-4
18:58:52.716127,-1,-5,0,14,0,-11,2,-1
18:58:52.738112,1,-1,0,-3,1,6,44,-5
18:58:52.739112,10,1,1,0,1,6,9,5
18:58:52.753105,-6,-1,-5,-3,-1,-4,4,-7
18:58:52.761100,0,0,0,1,-3,-1,2,-3
18:58:52.783085,-2,-1,3,1,4,-4,-34,-9
18:58:52.784087,2,1,0,4,2,0,5,1
18:58:52.798077,0,0,-3,2,0,-3,0,0
18:58:52.799074,-3,2,-1,-3,-5,-3,-7,2
18:58:52.813067,1,0,-3,-1,-1,7,-1,3
18:58:52.821060,5,3,4,5,9,4,8,8
18:58:52.836051,-3,1,0,0,-1,-4,-17,1
18:58:52.836051,-3,1,1,-1,2,-8,0,-3
18:58:52.858039,-4,1,0,-3,-1,-5,-61,-5
18:58:52.859037,0,-1,-3,-2,-1,-4,-2,-2
18:58:52.873029,-2,-3,-3,0,1,0,15,-5
18:58:52.888020,1,2,1,2,1,4,7,7
18:58:52.896016,-5,-2,-5,-3,-3,-3,0,-4
18:58:52.896016,6,2,0,-2,1,-4,4,6
18:58:52.918010,7,4,4,11,13,10,9,7
18:58:52.919001,-4,-3,-3,1,-1,0,8,-1
18:58:52.932993,-4,-1,-1,1,2,-1,-10,-10
18:58:52.940987,-2,-3,-2,-5,-11,6,2,12
18:58:52.956976,1,1,0,4,9,2,-3,-10
18:58:52.956976,-4,-4,-4,-3,-5,-2,53,-7
18:58:52.978962,7,4,2,2,1,4,0,0
18:58:52.978962,0,3,4,5,5,-3,8,3
18:58:52.993959,-4,-4,-2,-1,-3,-1,1,-5
18:58:53.000949,0,0,0,1,-1,0,-4,4
18:58:53.015940,-1,2,0,-2,0,1,-13,-11
18:58:53.015940,-2,2,2,5,3,-5,-7,-12
18:58:53.037926,5,0,-5,-4,-5,6,12,24
18:58:53.038926,-4,-5,0,-4,-5,-4,-17,-15
18:58:53.052915,-4,-3,-1,0,0,-1,1,-1
18:58:53.060912,2,0,-1,-3,-5,-2,-33,11
18:58:53.075902,0,1,1,-4,-1,3,3,-3
18:58:53.075902,-6,-2,-2,-2,0,0,12,-6
18:58:53.097889,5,3,-2,-3,-7,6,16,25
18:58:53.098888,-8,-3,2,-2,0,-3,6,-15
18:58:53.113878,5,2,3,2,2,3,3,3
18:58:53.120875,-1,-1,-3,-3,0,-3,-3,-5
18:58:53.135866,-5,1,0,-7,-2,-5,-3,-10
18:58:53.135866,-5,-6,-5,-3,-1,1,3,0
18:58:53.157852,0,0,1,-1,1,2,5,-4
18:58:53.158851,1,0,-1,-1,-3,-2,-4,0
18:58:53.173841,-1,1,3,1,-3,0,-15,-4
18:58:53.180837,-6,-4,0,-1,-4,-6,-54,-15
18:58:53.195828,0,-4,-4,-5,-1,0,9,1
18:58:53.196828,-1,-3,0,-4,-1,-1,24,5
18:58:53.217813,8,1,1,-1,7,0,-5,0
18:58:53.218822,-1,1,-2,0,2,1,-12,1
18:58:53.233805,6,1,-1,0,-4,0,0,5
18:58:53.240799,3,-3,2,3,0,1,2,5
18:58:53.255790,5,1,-1,-1,0,2,7,16
18:58:53.255790,-3,-1,0,-3,-7,-5,-37,-4
18:58:53.278776,-3,0,-1,1,-3,0,-7,-15
18:58:53.278776,10,2,2,-4,-2,7,6,20
18:58:53.293767,-5,-6,-5,-2,-1,-2,2,-9
18:58:53.308758,-2,0,-1,-2,-1,1,15,-6
18:58:53.315753,3,-3,-1,-1,0,6,9,4
18:58:53.316753,3,-2,1,-3,-4,-5,-6,-2
18:58:53.338739,-6,0,-4,-3,-3,-5,-5,-4
18:58:53.338739,-1,0,-2,-4,-7,-2,10,7
18:58:53.360731,0,2,0,2,3,2,46,-4
18:58:53.361730,-4,1,-2,-1,-1,-2,-18,4
18:58:53.375716,-8,-5,0,-2,-6,-4,4,-10
18:58:53.376716,11,3,2,6,5,5,6,23
18:58:53.398708,1,-1,-2,-1,-4,1,8,-1
18:58:53.398708,0,2,-2,2,1,6,7,-1
18:58:53.420688,-2,-1,0,-3,-4,-2,-4,0
18:58:53.421690,-4,-2,-2,-1,-1,-5,1,-5
18:58:53.435679,-1,-1,-3,-1,-2,0,-12,3
18:58:53.436678,-3,-1,-3,-2,-4,-6,-36,0
18:58:53.458665,5,-2,-1,1,-3,-7,8,-6
18:58:53.458665,-2,3,0,2,3,-1,1,-4
18:58:53.480651,-4,-6,-3,-2,-5,-2,1,-7
18:58:53.481651,-3,-3,-2,-2,-5,-1,0,-6
18:58:53.495643,0,0,-4,0,-2,-2,-8,11
18:58:53.496641,-8,-6,-5,-5,-6,-7,-10,-8
18:58:53.518629,1,-2,-3,-1,-5,2,1,-5
18:58:53.518629,3,-4,0,6,1,1,-3,8
18:58:53.540614,-6,-1,-3,-4,-5,-2,54,-4
18:58:53.541614,6,3,-1,1,1,9,33,13
18:58:53.555606,-2,0,0,-1,2,-1,3,-4
18:58:53.556604,-5,-4,-1,-3,-2,-6,10,0
18:58:53.578591,3,0,-2,-2,-1,10,8,15
18:58:53.578591,1,0,1,-1,-1,0,-3,-4
18:58:53.600576,-5,1,-3,0,-1,-1,-1,-3
18:58:53.601577,-4,1,-2,-2,0,1,-4,-12
18:58:53.615568,0,0,0,-2,-2,0,-3,-7
18:58:53.623562,1,-1,-3,1,-3,1,1,7
18:58:53.638554,-9,-3,-1,-4,-6,-6,-11,-20
18:58:53.638554,7,0,-4,-6,-1,0,-26,1
18:58:53.661540,-5,-4,-3,2,0,-3,12,0
18:58:53.661540,0,-2,-3,1,0,4,-8,-8
18:58:53.676529,4,-1,-5,-2,-4,-3,1,11
18:58:53.683525,0,6,3,2,-1,1,-4,-3
18:58:53.698516,-1,-2,-3,0,-1,1,-3,5
18:58:53.698516,-1,-2,-2,-1,-4,-3,0,-5
18:58:53.720503,0,-1,0,1,1,-3,-7,-8
18:58:53.721503,-1,-3,-3,-2,-4,-6,-39,4
18:58:53.735494,-5,-1,-3,0,-4,-2,7,-2
18:58:53.743487,-4,-2,-3,-3,0,-2,-4,0
18:58:53.758480,-6,-1,-4,-1,-1,-6,-5,-20
18:58:53.759478,0,0,-5,-1,0,-1,17,9
18:58:53.780466,-4,-1,-2,1,-2,-3,-2,-8
18:58:53.781464,1,2,-1,-3,1,-1,14,-5
18:58:53.796456,7,-2,-1,1,-1,-3,1,7
18:58:53.803452,-5,-5,1,-1,5,-3,-4,0
18:58:53.818441,-10,-4,-3,-4,-3,-7,76,-6
18:58:53.818441,-6,-3,-2,0,-3,4,-2,-11
18:58:53.840429,-4,-3,0,-3,-1,-4,-1,2
18:58:53.841429,-1,-2,-1,-3,1,-2,-11,4
18:58:53.855419,-1,-2,1,-1,-1,-2,-1,-3
18:58:53.863413,-2,-4,-5,-1,-1,-2,-6,24
18:58:53.885400,-4,-5,-1,-3,-2,-5,-1,-6
18:58:53.886401,6,-1,-2,-4,-4,3,-11,16
18:58:53.900391,-6,-2,-3,-1,2,-4,3,-5
18:58:53.901390,-2,-3,-3,-4,-1,2,4,-1
18:58:53.916382,2,1,1,0,-1,-6,-28,1
18:58:53.923376,3,1,1,0,2,8,25,12
18:58:53.938370,-1,-2,0,-1,-1,-1,-2,-3
18:58:53.939367,-1,1,0,0,-3,-2,2,2
18:58:53.960353,-5,-3,-3,-3,-3,0,-21,-4
18:58:53.961353,-4,-5,0,-3,-5,-5,1,-12
18:58:53.976346,-3,-2,0,1,4,4,-12,-25
18:58:53.983339,0,-1,-6,-4,-6,-11,-3,-5
18:58:53.998331,-7,-5,0,0,0,-2,1,-5
18:58:53.998331,-2,1,-3,-6,-4,-4,60,-11
18:58:54.021316,-3,2,1,-4,0,1,0,-8
18:58:54.021316,6,3,2,-2,1,5,10,4
18:58:54.035308,0,-2,1,2,-1,-8,-5,-5
18:58:54.043302,-1,0,2,1,-1,4,6,0
18:58:54.058294,3,0,-1,-1,-6,0,-2,21
18:58:54.059293,-3,-2,1,-1,-1,-3,2,-7
18:58:54.080335,1,3,2,3,6,2,0,0
18:58:54.081280,-3,-1,-1,-2,-1,-4,-12,7
18:58:54.096271,7,0,0,-1,-2,2,12,7
18:58:54.103264,-1,0,-3,-3,-2,0,-13,0
18:58:54.118256,-4,-7,-3,1,-2,0,7,-3
18:58:54.119255,-2,-2,-5,1,-3,-6,-6,0
18:58:54.140250,-5,-2,0,-2,-1,0,-3,-6
18:58:54.141252,0,-2,-4,-4,-5,-2,-12,2
18:58:54.163227,-1,-1,1,2,1,2,-3,-8
18:58:54.164229,-3,-3,-5,-4,-2,-4,1,-6
18:58:54.178219,-3,-1,-5,-1,-4,-1,1,4
18:58:54.179219,2,-2,1,1,1,1,-14,9
18:58:54.200207,-5,-3,-3,-3,-1,-5,-5,-15
18:58:54.201205,-3,3,2,4,8,0,-18,-2
18:58:54.224190,-1,-2,-2,-1,0,0,4,2
18:58:54.224190,1,0,1,1,3,4,8,0
18:58:54.239182,-3,-2,-2,-2,-3,1,-1,0
18:58:54.239182,-6,0,1,0,-1,-5,22,-8
18:58:54.261171,2,0,2,-2,-1,0,2,-1
18:58:54.262167,-1,-1,-2,-1,0,3,-9,-1
18:58:54.284153,-1,1,2,-1,0,2,-1,-2
18:58:54.284153,-3,-1,-3,-2,-2,-7,-4,-7
18:58:54.299150,0,-2,-3,-2,-3,0,7,18
18:58:54.299150,-3,-4,-2,1,0,3,0,-4
18:58:54.321134,-7,-3,3,-1,-1,0,-7,-12
18:58:54.322130,-5,0,-2,-2,-2,1,52,8
18:58:54.344118,1,0,2,1,0,-3,0,1
18:58:54.344118,-4,-2,1,-2,1,-1,3,0
18:58:54.359107,-2,-4,-3,-4,0,5,3,7
18:58:54.359107,-5,-1,-4,-3,-3,-2,-24,-10
18:58:54.381096,5,4,1,3,1,8,32,18
18:58:54.382092,-6,-3,-5,-2,-7,-3,-4,-10
18:58:54.404080,0,-1,-2,-2,-4,1,-1,11
18:58:54.404080,-2,-1,-2,0,1,0,20,1
18:58:54.419070,-2,-2,1,0,-1,2,4,-8
18:58:54.419070,-3,-4,-2,-1,1,-3,4,12
18:58:54.441059,1,-3,1,0,0,2,-10,4
18:58:54.449052,-3,-3,-2,0,-1,-5,-1,-8
18:58:54.464041,-5,-1,-3,-1,1,0,-22,-5
18:58:54.464041,4,-3,-3,-2,0,4,16,10
18:58:54.479032,0,1,-1,-2,-3,-4,-2,-1
18:58:54.479032,-2,-2,0,-3,0,2,3,-1
18:58:54.501022,-6,1,-2,-3,-7,-4,-4,-3
18:58:54.501022,-3,1,0,0,0,-1,-1,0
18:58:54.524006,-5,-4,0,0,-1,-2,-9,-15
18:58:54.524006,1,1,-1,-1,1,0,20,13
18:58:54.539000,-2,0,2,-2,0,2,-47,2
18:58:54.539000,-1,0,-3,-2,1,2,5,-12
18:58:54.560985,-4,0,-1,-5,1,-1,-23,2
18:58:54.561981,-1,0,0,-2,0,-4,5,-4
18:58:54.583968,-2,0,-1,-1,-3,-2,-3,-10
18:58:54.583968,-8,-1,0,-4,-3,-6,-8,-5
18:58:54.598958,-5,-4,-1,0,4,6,11,9
18:58:54.598958,-4,-1,-3,-2,-1,-1,-8,-9
18:58:54.620944,-6,-3,-1,-6,-1,-3,-5,-6
18:58:54.621944,2,2,0,0,0,0,0,1
18:58:54.650925,-2,0,-3,-5,-4,-2,-4,1
18:58:54.651925,1,2,-1,2,2,-2,2,1
18:58:54.658921,1,-3,-2,2,-2,0,6,3
18:58:54.658921,0,1,0,-1,-3,1,-22,10
18:58:54.680907,-6,-2,-3,0,-4,-4,-15,-25
18:58:54.681910,9,5,3,2,2,6,24,23
18:58:54.703893,-4,-3,-3,-3,-1,-3,-7,-13
18:58:54.703893,-4,0,-4,-2,-4,-1,3,-9
18:58:54.718889,18,2,1,-3,3,7,-6,11
18:58:54.718889,1,4,1,1,1,-1,2,0
18:58:54.741871,-1,1,-2,-2,-4,-3,-1,-1
18:58:54.741871,0,1,3,0,-1,-1,1,0
18:58:54.763859,0,-2,-1,1,1,-3,-27,-4
18:58:54.764856,-3,-1,-2,0,0,2,-52,-3
18:58:54.778850,-1,-3,0,-2,-2,-1,19,-7
18:58:54.779846,-3,-3,-1,1,-3,-3,1,-9
18:58:54.800836,-9,-3,-4,-2,-2,-4,6,-11
18:58:54.801832,5,3,0,-1,-1,2,-4,10
18:58:54.823822,0,-2,-4,-6,0,2,2,-3
18:58:54.823822,-2,-3,-3,0,-1,-3,0,-2
18:58:54.838812,2,1,0,3,0,0,-22,-1
18:58:54.838812,-3,3,2,0,-3,-4,3,5
18:58:54.860797,-4,-2,1,-4,-1,0,44,5
18:58:54.861795,-1,-3,0,0,0,2,1,3
18:58:54.883782,-6,-3,-5,-2,0,-2,-14,-15
18:58:54.883782,-1,-4,4,0,3,2,-20,3
18:58:54.898773,-4,-3,-4,-1,-5,-6,-1,-4
18:58:54.899771,-3,-3,-3,0,0,-2,0,-2
18:58:54.920760,-1,1,0,-2,1,-4,-1,-3
18:58:54.921759,0,0,-1,-2,0,-4,12,4
18:58:54.943748,-1,1,2,1,2,2,-6,-7
18:58:54.944744,-1,-5,-2,-1,0,1,3,0
18:58:54.958738,-2,-2,-1,-3,-1,0,-7,-1
18:58:54.966732,-4,1,-6,-3,0,-1,-4,-6
18:58:54.988719,-1,-3,-2,1,-1,0,-51,5
18:58:54.989716,8,-1,-1,2,1,5,8,18
18:58:55.003711,4,0,-3,0,2,5,14,3
18:58:55.004706,-6,-3,-3,-3,-3,-3,-6,-6
18:58:55.026694,0,-1,-1,1,4,4,11,14
18:58:55.026694,-1,-3,-3,-1,0,-2,0,-2
18:58:55.040684,-1,0,0,2,2,1,-2,-2
18:58:55.041683,-3,-1,0,-2,0,0,0,-4
18:58:55.071665,-1,1,-2,1,-4,-5,23,-6
18:58:55.071665,2,2,2,1,1,7,66,5
18:58:55.086656,4,2,-2,-1,1,-1,0,-5
18:58:55.086656,4,-1,3,1,-1,3,-18,-3
18:58:55.101649,3,-3,-2,-2,2,1,7,4
18:58:55.101649,-2,0,0,1,-3,-4,-4,-3
18:58:55.123636,-4,0,-3,-3,-1,-4,2,-12
18:58:55.124632,-4,2,0,0,0,4,2,-10
18:58:55.146618,6,-1,2,1,0,-1,2,3
18:58:55.146618,0,1,0,2,-3,0,0,0
18:58:55.161609,0,-3,-1,-2,-4,5,-9,-2
18:58:55.161609,-1,-1,-3,1,4,1,5,-1
18:58:55.183599,-2,-1,0,-3,-4,-2,-2,-2
18:58:55.184598,-4,-1,-1,-4,-1,-1,53,-3
18:58:55.205582,1,3,4,1,2,4,-11,0
18:58:55.206581,-4,0,-3,-2,-4,-1,-8,-5
18:58:55.221578,-3,-1,-2,-2,-2,-1,4,-1
18:58:55.221578,0,-1,-1,-2,-2,1,1,0
18:58:55.243561,0,1,0,-3,-1,1,-2,0
18:58:55.244561,-2,-3,-4,-1,-3,-1,-2,-6
18:58:55.266547,-2,-3,-2,0,-1,0,1,-5
18:58:55.266547,2,0,0,0,0,0,5,-8
18:58:55.280537,2,0,-1,4,0,-2,-1,-2
18:58:55.281535,-1,1,1,-1,2,-3,-3,3
18:58:55.303524,-1,0,2,2,0,0,2,5
18:58:55.304522,2,0,-1,-1,-2,0,2,-2
18:58:55.326508,0,-1,-1,1,1,0,15,0
18:58:55.326508,-11,-4,-4,-1,-2,-3,36,-16
18:58:55.341497,9,2,0,-1,-3,3,16,18
18:58:55.341497,-8,-2,-1,0,0,1,0,-10
18:58:55.363487,2,3,3,4,1,-2,2,1
18:58:55.364486,9,0,-1,1,-4,-1,4,6
18:58:55.386471,1,-4,0,0,0,-1,-1,-2
18:58:55.386471,0,-4,-1,1,2,-4,-5,-5
18:58:55.401460,-2,-2,-4,2,0,0,7,1
18:58:55.401460,-7,-3,-4,-2,-7,-5,-4,-8
18:58:55.423450,-5,-4,0,-1,-1,-3,-30,-6
18:58:55.424449,-2,0,0,-1,-4,1,6,3
18:58:55.446433,-5,-2,0,-2,-2,-3,6,-7
18:58:55.446433,-3,-2,-3,-1,-3,-1,-11,2
18:58:55.461425,-1,-2,4,-3,1,1,7,10
18:58:55.461425,-3,-2,-1,-1,-2,2,-3,-3
18:58:55.483413,-1,-1,-1,-1,0,3,0,-2
18:58:55.484411,-1,0,0,-1,-1,0,-3,-6
18:58:55.506395,0,-3,-1,0,-1,-3,-1,-4
18:58:55.506395,8,0,1,0,-2,-3,-19,1
18:58:55.521386,-3,3,2,2,-1,-2,2,-5
18:58:55.521386,-1,-3,-2,-3,2,3,-13,-6
18:58:55.543375,0,2,-1,-3,-1,1,16,-5
18:58:55.544372,-1,-4,-1,1,-2,0,2,-2
18:58:55.566358,0,-2,-1,-2,2,4,64,8
18:58:55.566358,-2,-2,-1,0,-3,1,-18,-9
18:58:55.581353,0,0,0,1,0,4,7,-7
18:58:55.581353,5,2,-1,-4,-1,0,14,11
18:58:55.603335,-4,-1,-1,0,-2,1,-11,-11
18:58:55.604335,-2,0,-3,-1,0,-2,-9,0
18:58:55.626321,-1,1,-1,-2,-3,0,11,-1
18:58:55.626321,-2,0,1,-1,1,1,-2,3
18:58:55.641314,-1,1,-1,2,-2,-5,-51,-12
18:58:55.641314,-2,0,-1,0,-3,0,7,0
18:58:55.663300,-4,-1,-1,1,-1,2,0,-3
18:58:55.664297,-5,-4,1,-2,-1,-1,-9,-13
18:58:55.686283,0,-4,-2,2,1,1,-14,5
18:58:55.687287,-4,-1,-2,-4,-1,0,1,-2
18:58:55.701278,3,0,-3,-1,-2,0,-14,17
18:58:55.702274,-2,1,-2,1,0,2,0,-4
18:58:55.723262,-4,-1,-1,0,0,2,-47,3
18:58:55.724262,-7,-4,-3,-3,-7,-1,-14,-20
18:58:55.746249,5,2,0,1,3,1,-3,9
18:58:55.747247,-1,-3,1,-4,-1,-3,-1,-2
18:58:55.761240,-7,-1,-4,0,0,2,42,3
18:58:55.762236,0,3,4,3,6,2,5,-2
18:58:55.783225,-7,-4,-1,1,3,3,-4,-13
18:58:55.784225,5,-1,-1,-1,0,-2,4,-7
18:58:55.806212,-6,-1,-1,-2,-1,-2,-3,-2
18:58:55.807215,2,1,5,4,0,0,18,4
18:58:55.821203,1,-3,-3,0,-4,-4,0,-6
18:58:55.822201,-4,-4,-3,-3,1,4,-6,-3
18:58:55.844187,3,0,3,-2,3,2,8,11
18:58:55.844187,-5,-4,-2,-2,-2,-2,-28,-10
18:58:55.866175,5,0,0,1,-1,2,11,30
18:58:55.867171,-4,-7,0,-4,-1,-5,-2,-14
18:58:55.889160,-3,-1,-3,-3,-2,0,11,-6
18:58:55.889160,1,-1,0,0,1,2,-3,-5
18:58:55.904148,-1,-3,-2,-2,-4,1,-21,-1
18:58:55.904148,-1,-1,-5,-3,-2,-2,4,1
18:58:55.926138,2,4,2,2,-1,-3,-2,-9
18:58:55.927134,-3,-1,-2,-1,1,4,-37,-1
18:58:55.941129,-3,-3,-3,-4,0,0,21,-3
18:58:55.949121,-4,1,-1,-4,-1,-3,-8,-10
18:58:55.964112,3,2,3,4,1,7,13,12
18:58:55.964112,-2,-4,-3,0,-5,0,-3,-5
18:58:55.986101,-3,-2,-2,-3,-2,9,-5,21
18:58:55.987100,1,2,0,-2,-1,1,11,3
18:58:56.016082,-4,-6,-2,-3,-3,-3,-2,-3
18:58:56.017080,-2,-3,-3,1,-2,5,6,0
18:58:56.023075,2,-1,-2,1,-1,-1,2,2
18:58:56.024076,-3,-1,1,-2,-3,-6,-24,1
18:58:56.046064,-3,-3,-2,0,-3,-5,-69,-12
18:58:56.047060,2,0,-1,-1,2,-1,16,0
18:58:56.069046,-2,-3,-3,-4,0,-1,-3,-4
18:58:56.069046,2,-1,-2,0,-2,1,22,19
18:58:56.091036,-1,-2,-1,2,0,-2,15,0
18:58:56.092032,0,0,3,3,7,-1,-1,4
18:58:56.106024,-2,-2,-4,-3,-2,-3,-3,-9
18:58:56.107023,5,3,3,5,4,0,18,3
18:58:56.129011,-5,0,-1,-2,-2,-3,-72,-19
18:58:56.129011,0,0,0,2,-4,-4,8,3
18:58:56.144001,-2,-2,-2,-5,-2,-3,-6,-21
18:58:56.144001,-2,-3,-4,0,-1,1,-8,-6
18:58:56.165989,1,-1,-2,0,-3,0,10,-2
18:58:56.166988,-1,-1,-2,0,2,-4,1,-21
18:58:56.188972,5,2,0,0,-3,2,4,21
18:58:56.188972,-3,-3,-2,-2,-3,-7,3,-3
18:58:56.203963,-3,0,0,2,4,1,-5,-11
18:58:56.203963,1,-1,0,-5,-5,-7,-7,31
18:58:56.225950,-4,-6,-3,-1,-2,-4,-5,-11
18:58:56.226949,-6,-3,-1,-3,-6,-1,-7,-15
18:58:56.248935,-3,1,-2,-4,-3,-4,-7,-1
18:58:56.248935,-1,0,-1,2,1,-6,-45,2
18:58:56.263925,2,0,2,-1,0,2,13,7
18:58:56.263925,3,0,1,1,3,6,4,3
18:58:56.285914,-2,-1,-1,-2,-1,-2,13,-5
18:58:56.286911,5,1,1,1,3,1,11,13
18:58:56.308898,-2,-1,-3,0,0,-6,-2,-3
18:58:56.308898,3,1,-3,-4,-4,-3,-1,4
18:58:56.323889,4,1,-2,-1,-1,-5,-30,5
18:58:56.323889,0,0,0,1,1,0,-11,-4
18:58:56.346887,-3,-3,-4,-6,-6,-9,22,-4
18:58:56.346887,0,1,2,4,0,-4,-3,7
18:58:56.368860,-4,-2,-4,-1,-4,-6,-3,-14
18:58:56.368860,7,1,-2,0,-1,4,-10,33
18:58:56.383851,-4,-4,-2,2,3,-2,-1,-7
18:58:56.383851,-1,-2,-5,-1,-2,-4,-33,-2
18:58:56.405837,-1,-2,-1,-2,-3,-1,3,-8
18:58:56.406837,1,-4,2,-4,-3,-2,-19,-5
18:58:56.428826,3,-3,0,0,4,0,1,10
18:58:56.429822,-7,-6,0,-3,-3,-4,-35,2
18:58:56.443814,-2,-2,-2,0,2,-2,-3,-8
18:58:56.443814,-1,2,-4,-1,0,-1,-10,-6
18:58:56.465801,-3,-4,-2,-1,-4,-2,0,-5
18:58:56.466800,2,1,-2,-1,-1,3,7,5
18:58:56.488789,-2,-2,-2,-2,-1,0,3,-7
18:58:56.489788,-1,-2,-2,-5,1,-1,4,3
18:58:56.503780,2,0,1,-2,1,0,-9,15
18:58:56.511774,-5,1,0,1,1,-3,-7,-10
18:58:56.526764,-5,-3,-4,-3,-6,-4,-23,15
18:58:56.526764,-2,-2,-2,-2,-1,1,4,-5
18:58:56.548752,-3,0,0,-2,-3,-1,1,-4
18:58:56.548752,-4,-1,1,0,0,-2,-12,-2
18:58:56.563743,-3,-2,-1,1,1,-2,2,2
18:58:56.570737,5,1,0,1,0,2,10,9
18:58:56.586728,-7,-1,-3,1,2,-5,-51,-8
18:58:56.586728,7,3,0,0,2,12,17,25
18:58:56.608712,0,-1,-3,-3,-3,-2,-2,-6
18:58:56.609711,-4,-2,-1,-1,1,-1,24,7
18:58:56.623705,1,1,3,-1,-1,-2,4,2
18:58:56.631699,-3,-1,1,1,-1,5,3,-6
18:58:56.646687,-2,0,-1,-2,2,-1,-20,-6
18:58:56.646687,-3,-1,-1,1,-2,3,3,-3
18:58:56.668678,-4,-4,-1,1,-3,0,-4,-6
18:58:56.669674,-5,-4,-3,-2,2,-4,-44,-1
18:58:56.683668,-4,-4,-4,-5,0,-1,0,-9
18:58:56.690666,7,2,2,2,3,4,13,18
18:58:56.706650,2,-4,-2,-1,-3,-2,-8,16
18:58:56.706650,-3,0,0,1,2,-3,-17,-1
18:58:56.728640,-2,3,-1,2,0,3,3,6
18:58:56.729636,2,0,-1,0,-2,2,-10,4
18:58:56.743631,-4,-1,-2,-2,1,0,3,-2
18:58:56.751623,3,0,-1,0,-4,-2,9,5
18:58:56.766616,-5,-2,-2,0,0,0,6,-6
18:58:56.766616,3,3,2,0,0,4,8,9
18:58:56.788603,0,3,0,2,2,-4,0,-13
18:58:56.789602,7,3,-3,-1,1,5,24,28
18:58:56.803594,0,-3,-1,-4,-2,-1,-18,-2
18:58:56.811585,-5,-2,-2,-1,-2,1,1,-5
18:58:56.826577,-1,-1,-2,0,2,-6,-6,-6
18:58:56.826577,0,1,3,0,1,-2,0,-3
18:58:56.848566,-2,-5,0,-1,0,5,4,1
18:58:56.849562,1,1,-1,3,-1,5,-5,2
18:58:56.863556,1,-1,-1,2,0,-4,0,-2
18:58:56.871548,-3,0,-1,-3,-3,-1,-4,-1
18:58:56.886540,-4,-1,0,0,2,-3,-49,2
18:58:56.886540,9,1,2,0,1,3,21,31
18:58:56.908528,-6,-2,-1,-2,-4,-2,-6,-15
18:58:56.909527,0,-2,-2,0,-1,-1,-8,1
18:58:56.923517,0,0,-2,-1,-1,0,19,-3
18:58:56.931515,5,2,-1,-1,2,4,4,2
18:58:56.946502,-2,-2,2,-1,0,0,4,-4
18:58:56.946502,-2,-1,-2,-1,-1,-3,3,-1
18:58:56.968492,-2,-3,-2,1,0,0,2,0
18:58:56.969501,-4,-1,-2,0,-3,0,9,-4
18:58:56.983479,8,1,1,0,1,0,6,5
18:58:56.991477,4,1,0,2,-2,2,9,-1
18:58:57.006465,3,1,4,1,0,0,6,-3
18:58:57.006465,0,-2,0,-2,0,-4,3,-2
18:58:57.028454,-3,-3,-2,0,-1,-5,-27,-6
18:58:57.029454,4,2,0,1,1,5,-9,1
18:58:57.043444,-2,-3,-2,4,0,-4,-3,-7
18:58:57.051440,2,0,2,-1,0,0,5,4
18:58:57.066428,-5,3,-1,-1,-2,3,-35,-7
18:58:57.066428,-2,-3,-1,-2,1,-5,2,-8
18:58:57.088417,4,2,1,0,-1,-3,0,2
18:58:57.089414,-2,-1,-4,-14,0,-5,-14,-7
18:58:57.103408,-1,-2,-2,-9,1,0,2,-9
18:58:57.111403,-3,-6,0,-10,-88,3,8,-21
18:58:57.126390,9,5,-1,4,24,4,12,4
18:58:57.126390,-2,2,0,-4,-6,-3,1,-6
18:58:57.148380,-4,-3,1,-1,-3,-7,-1,-2
18:58:57.149377,-3,-3,-1,-2,-1,-1,4,10
18:58:57.171363,1,-5,-2,2,0,-3,25,4
18:58:57.171363,-2,-1,-1,1,4,-1,-3,-9
18:58:57.193351,0,0,-1,-7,0,-2,11,6
18:58:57.194351,-2,0,-1,2,7,0,-4,-6
18:58:57.208342,-1,-2,-1,-1,-6,-4,4,4
18:58:57.209339,2,-1,-3,-3,1,3,9,25
18:58:57.231333,1,1,2,4,0,7,15,3
18:58:57.231333,-4,-1,-3,-4,-1,-3,0,-5
18:58:57.246319,0,-5,-4,-4,-4,-2,-1,-1
18:58:57.247321,1,0,0,5,17,6,7,-3
18:58:57.268305,10,3,1,-19,-27,0,12,21
18:58:57.269305,4,0,0,9,13,2,11,8
18:58:57.291291,-2,3,0,6,23,-5,-3,-8
18:58:57.291291,2,2,-3,-5,3,-1,10,6
18:58:57.306279,2,0,-3,27,9,-1,12,13
18:58:57.306279,-1,0,-1,-1,3,-1,2,2
18:58:57.329268,-4,-1,-2,-2,-4,-1,-1,-10
18:58:57.329268,-1,0,-2,-1,-4,-3,-1,-3
18:58:57.351254,-3,-1,-3,-2,-2,-2,0,1
18:58:57.352250,2,1,-2,-2,0,5,1,2
18:58:57.366245,-3,0,2,1,0,-5,1,-5
18:58:57.367243,-2,-4,0,0,-1,4,6,6
18:58:57.388230,-4,-4,-3,-4,-8,-5,-4,-7
18:58:57.389228,-2,-3,-1,-1,-1,-1,-2,-2
18:58:57.411217,-2,-3,-2,-3,1,2,20,2
18:58:57.412216,7,2,1,-1,-2,-3,-5,38
18:58:57.426205,1,0,0,-3,-3,-2,1,-2
18:58:57.434200,0,-4,0,0,3,-5,-1,-5
18:58:57.448191,-1,-1,-2,0,-1,2,5,1
18:58:57.449193,-3,-3,0,-1,-3,-2,27,-9
18:58:57.471180,14,2,2,2,3,11,30,40
18:58:57.472179,-3,-2,-2,-6,-7,-5,-1,-14
18:58:57.486170,6,3,1,-1,3,4,13,5
18:58:57.494162,1,-1,-1,-3,-5,-3,1,-9
18:58:57.508154,4,-1,0,-1,3,4,-4,17
18:58:57.509153,-1,-1,-1,-5,-6,-7,2,-9
18:58:57.531143,-5,1,-1,-12,-1,0,1,6
18:58:57.532146,-2,-2,0,7,3,-4,-9,-12
18:58:57.546133,3,-3,0,-3,0,4,-56,11
18:58:57.561124,-3,-3,0,-4,-3,-4,4,-6
18:58:57.569116,-3,0,1,-4,1,-5,-13,-2
18:58:57.569116,0,0,-1,2,5,3,-3,10
18:58:57.591105,5,-1,-3,-3,-3,-7,4,20
18:58:57.592103,1,-1,-2,0,-2,-4,-11,1
18:58:57.606096,-4,-4,-5,-1,1,-3,-3,-2
18:58:57.614088,0,0,-2,2,0,-1,-23,11
18:58:57.629080,1,-2,-2,-1,-5,0,4,-4
18:58:57.629080,-3,-1,-1,1,-2,-6,-6,-12
18:58:57.651068,5,0,-1,-2,4,8,5,3
18:58:57.652067,-4,-1,0,0,-1,2,-13,-8
18:58:57.666059,-6,-4,-3,-2,-4,-3,-11,-15
