timestamp,emg1,emg2,emg3,emg4,emg5,emg6,emg7,emg8
16:23:42.564814,1,0,0,2,1,-2,-3,1
16:23:42.571810,1,-3,-1,-1,-1,-2,-4,-3
16:23:42.586799,0,-1,1,-4,1,1,-3,-3
16:23:42.596792,-1,1,0,3,5,3,0,2
16:23:42.602793,0,-1,1,1,-1,-2,0,-2
16:23:42.617779,-3,-1,0,-2,1,1,-2,-1
16:23:42.617779,-1,3,0,-2,-1,-1,-2,-1
16:23:42.638766,1,0,-3,0,2,0,2,0
16:23:42.639766,0,2,-1,-1,1,1,1,-1
16:23:42.653756,-2,-2,-2,-4,0,1,-2,-4
16:23:42.661751,-1,0,-2,0,1,2,1,-2
16:23:42.676742,-3,0,-3,-1,-1,-3,-1,-1
16:23:42.683737,1,-2,0,0,3,0,-1,0
16:23:42.698728,-2,-2,0,-3,-1,1,-2,-1
16:23:42.699729,0,1,0,0,-2,1,0,0
16:23:42.713724,0,1,3,2,3,1,0,1
16:23:42.721715,1,-1,-2,-5,0,-5,-2,-4
16:23:42.743700,0,-1,0,-1,0,-1,0,-4
16:23:42.751695,-1,2,0,0,3,1,-1,-2
16:23:42.758691,0,2,-1,-3,-3,-3,0,1
16:23:42.759691,1,-2,2,1,4,1,0,-1
16:23:42.774686,-1,-3,0,0,-3,-1,0,-1
16:23:42.781680,2,1,4,-2,0,0,-1,-1
16:23:42.796671,0,-1,1,-1,-3,-4,0,-2
16:23:42.804667,4,2,-1,1,-2,-1,-2,-3
16:23:42.819654,2,2,0,2,3,2,1,3
16:23:42.819654,0,-1,1,0,-2,-3,-1,0
16:23:42.834645,-1,0,0,-2,-2,-1,0,-1
16:23:42.841644,2,0,0,-1,-1,-3,-1,-2
16:23:42.856635,-1,-1,1,-1,3,0,1,0
16:23:42.863631,-1,1,0,0,1,1,-1,0
16:23:42.879617,0,-2,2,-1,0,-1,0,-3
16:23:42.879617,0,-1,1,-1,0,0,-2,-2
16:23:42.894611,2,-2,0,-1,0,-1,-2,0
16:23:42.901607,0,3,2,1,4,2,3,2
16:23:42.916595,-4,-1,-2,-1,-3,-2,0,0
16:23:42.924592,0,0,2,2,-2,-1,-1,1
16:23:42.946579,-2,-2,-3,0,0,-3,-1,0
16:23:42.947579,-4,0,1,-2,-1,2,0,-3
16:23:42.954574,2,-1,-2,1,-1,-1,0,0
16:23:42.961570,2,0,0,2,1,-1,-1,2
16:23:42.976561,-2,0,-1,1,-1,0,-1,-4
16:23:42.984553,0,0,3,-2,-3,-1,-2,0
16:23:42.999544,1,-1,-2,-2,-6,-4,-1,0
16:23:42.999544,-1,0,2,1,2,0,4,2
16:23:43.014537,-1,0,-2,2,-2,-3,-3,-1
16:23:43.021533,-2,0,-4,-1,1,0,-1,-2
16:23:43.036524,0,0,-1,3,-1,-4,2,1
16:23:43.044516,1,-1,1,2,2,1,0,-1
16:23:43.059508,1,-2,-6,-3,-3,1,2,1
16:23:43.059508,-1,1,-3,0,0,-1,1,-1
16:23:43.081496,1,3,2,0,2,0,1,4
16:23:43.082493,-2,2,-2,-1,1,1,1,-6
16:23:43.096487,0,1,0,2,5,2,0,1
16:23:43.111476,5,2,0,1,4,0,1,3
16:23:43.119471,1,0,-1,1,-2,-3,0,2
16:23:43.119471,0,1,0,-1,-1,0,-1,-3
16:23:43.134464,0,-2,-1,-2,0,0,2,0
16:23:43.141459,4,-1,1,2,3,1,0,-3
16:23:43.164447,1,-1,-2,0,0,-1,-1,-3
16:23:43.164447,2,0,-2,0,-1,-2,0,-1
16:23:43.179432,1,0,0,-2,-1,-2,-1,1
16:23:43.179432,-2,1,0,1,2,1,4,1
16:23:43.194427,-1,1,-2,-1,-1,-2,2,1
16:23:43.201420,-4,-1,-2,-1,2,0,-3,-1
16:23:43.216410,-2,0,-3,1,-4,0,-1,0
16:23:43.224409,1,-2,2,-2,2,2,-1,0
16:23:43.239397,-3,-1,-1,-3,-1,0,1,0
16:23:43.239397,2,1,3,-1,1,-1,0,2
16:23:43.254390,1,-1,1,1,-2,-3,-3,-4
16:23:43.261384,-1,0,0,0,-1,-4,0,-3
16:23:43.276373,3,0,-1,-3,2,1,-2,-1
16:23:43.284372,-4,1,-4,2,2,-3,-1,-1
16:23:43.299359,-3,1,0,-2,1,-3,-2,-3
16:23:43.300359,-1,2,0,1,-3,-4,1,-2
16:23:43.314353,-5,-2,0,-4,-1,1,-2,-2
16:23:43.321346,0,0,-1,1,1,0,1,1
16:23:43.337347,-1,0,-3,1,-1,-1,1,0
16:23:43.344334,0,-1,-1,0,-2,-2,0,-1
16:23:43.359322,0,0,0,0,1,3,1,2
16:23:43.360324,0,-1,-3,-4,-2,0,0,-3
16:23:43.374316,-3,0,-3,1,1,0,-1,0
16:23:43.389307,0,0,-2,-3,0,2,0,0
16:23:43.397298,3,-1,3,3,-1,1,0,2
16:23:43.404297,1,0,1,0,2,2,0,-1
16:23:43.419288,0,-3,-2,-3,-2,-1,1,-4
16:23:43.420289,3,-1,0,3,3,-4,-1,1
16:23:43.434279,-1,-1,0,-1,0,1,0,2
16:23:43.441272,0,2,2,-2,-1,-1,-1,0
16:23:43.457262,-1,0,-1,1,-3,-1,-1,-1
16:23:43.472254,0,0,-2,-1,-1,3,-2,-1
16:23:43.479251,-1,-1,-1,-4,-2,-2,-2,0
16:23:43.479251,-2,0,1,-5,-1,0,-1,0
16:23:43.494242,0,1,1,-1,-1,0,-2,-1
16:23:43.502237,1,-2,0,-4,-1,1,-1,-2
16:23:43.517227,-2,-1,2,2,0,-1,-3,1
16:23:43.524224,0,1,0,-2,1,2,-2,2
16:23:43.539214,-1,-3,0,1,-2,-4,-3,1
16:23:43.540213,-1,-2,2,0,0,4,-1,-3
16:23:43.554205,1,-1,-1,-2,-1,-3,-1,-3
16:23:43.561200,-1,0,-1,2,1,1,2,-4
16:23:43.577188,1,-2,-2,0,1,-3,-1,1
16:23:43.584184,2,1,1,0,0,0,1,1
16:23:43.599174,-5,-4,0,1,-1,0,0,1
16:23:43.607173,2,0,1,1,3,4,3,3
16:23:43.614168,-3,-2,2,1,-1,0,-4,-1
16:23:43.622163,0,1,0,0,2,1,2,-2
16:23:43.637151,0,1,1,1,1,-3,0,3
16:23:43.644150,-1,0,2,-1,1,5,2,-1
16:23:43.659141,-1,-2,-3,-2,1,1,0,-2
16:23:43.667132,1,1,-2,0,0,0,0,-3
16:23:43.689122,0,-1,1,-1,2,-3,0,-1
16:23:43.690118,-1,0,0,-1,3,-1,1,-1
16:23:43.697118,-1,0,-4,-2,-1,-1,-3,-3
16:23:43.704113,-1,0,-1,-1,-1,2,-1,-1
16:23:43.719101,-2,-3,-1,0,-1,-3,-2,-2
16:23:43.727099,-3,2,-3,0,3,1,2,-1
16:23:43.742086,-2,2,0,-1,1,1,-3,-3
16:23:43.742086,1,-3,0,-3,-2,2,-3,-1
16:23:43.757077,0,0,3,-1,-4,2,-2,-1
16:23:43.764076,3,0,1,0,-2,0,0,2
16:23:43.787062,-1,1,-1,0,-2,2,0,-3
16:23:43.787062,0,-2,0,-1,1,1,-1,0
16:23:43.802053,-1,0,0,-1,4,3,-2,0
16:23:43.802053,1,0,2,-2,-1,2,-1,-1
16:23:43.817044,-3,1,-1,-2,0,0,-1,-1
16:23:43.824039,0,2,3,1,2,0,0,2
16:23:43.839030,-1,0,1,-4,-1,0,0,-1
16:23:43.847022,-2,-2,1,4,1,0,1,0
16:23:43.862015,2,2,-3,1,-1,-3,1,2
16:23:43.862015,-4,-3,-1,-1,-1,0,0,-3
16:23:43.877004,-4,-2,-1,-2,-2,-1,-8,-6
16:23:43.884002,2,0,-2,-2,-1,1,-1,6
16:23:43.899990,-1,-1,-2,-2,-2,-2,0,-1
16:23:43.913983,-3,-1,0,-1,-2,2,0,-3
16:23:43.921979,4,0,2,-1,4,2,-1,3
16:23:43.923977,0,1,-1,2,-1,0,1,-4
16:23:43.936970,-1,-3,1,-4,-6,-3,0,-5
16:23:43.943965,1,1,-1,1,0,-3,-1,3
16:23:43.958955,-2,2,-1,-2,-2,-3,0,-6
16:23:43.966951,-1,-1,0,-4,-5,0,1,-1
16:23:43.981941,1,-1,0,1,4,1,2,0
16:23:43.982940,2,0,-1,1,0,1,1,1
16:23:43.996933,0,2,-4,0,-3,-3,0,1
16:23:44.003927,1,0,-1,1,3,2,-2,-2
16:23:44.018918,-1,0,-2,-2,-3,0,2,0
16:23:44.026911,-2,0,-1,-2,-1,1,-1,-3
16:23:44.041902,-1,-1,-3,1,-3,-2,-1,0
16:23:44.041902,-2,0,0,-1,0,2,-1,-1
16:23:44.056896,-1,-3,-1,1,-1,2,-3,-2
16:23:44.063890,-4,-1,0,1,-1,0,-2,-1
16:23:44.078880,0,-3,1,-2,-3,-1,-1,0
16:23:44.086877,0,1,-2,0,0,-1,0,1
16:23:44.101868,1,-1,-4,-5,0,0,-3,-3
16:23:44.102867,-4,-1,-2,2,3,0,-1,0
16:23:44.116859,1,2,0,-3,-2,-4,-2,-2
16:23:44.123852,-4,-3,0,-1,0,0,2,1
16:23:44.138842,-2,-3,1,-2,-4,-3,-3,-1
16:23:44.146837,1,-2,-1,1,-1,-3,-1,1
16:23:44.161830,-3,-4,2,1,7,1,-2,-1
16:23:44.162831,1,1,-1,-4,-10,-3,-1,1
16:23:44.176819,-3,-4,-3,1,0,-2,-1,-2
16:23:44.183817,-2,-3,-6,-7,-6,1,2,-2
16:23:44.198808,-3,-1,2,2,5,-2,0,-1
16:23:44.206803,-2,2,5,4,-1,1,0,-1
16:23:44.221794,-3,-5,-7,6,4,-3,-3,1
16:23:44.222793,2,1,3,-8,-5,0,-3,1
16:23:44.236785,1,1,-11,-40,-6,-4,1,1
16:23:44.243778,-4,-2,3,6,-1,-1,-3,-3
16:23:44.258769,2,0,1,0,1,2,-1,1
16:23:44.273760,2,1,8,5,6,-2,1,6
16:23:44.281757,-2,-3,-3,-2,-1,1,0,-3
16:23:44.282754,-4,1,0,-1,8,4,1,-2
16:23:44.296748,-1,2,10,9,-2,-1,-3,-2
16:23:44.303740,4,1,-10,-30,0,2,3,2
16:23:44.319734,-5,-5,-20,-11,-29,-8,-4,-4
16:23:44.326730,-7,-4,-7,-4,4,-3,-4,-3
16:23:44.341721,1,4,-2,0,7,6,0,-1
16:23:44.342717,0,-2,32,14,16,8,4,5
16:23:44.356711,0,-1,1,-25,-14,-4,-3,-2
16:23:44.363706,2,8,2,-15,-25,6,3,2
16:23:44.379697,-11,-17,-4,16,42,-5,-6,-5
16:23:44.386693,7,11,5,-96,-9,6,6,8
16:23:44.401683,0,7,53,-26,-33,-1,-2,-4
16:23:44.402682,1,-8,-19,12,87,6,3,3
16:23:44.416674,15,23,-11,-43,-54,21,9,12
16:23:44.424670,0,-11,-37,-128,-128,-32,-2,3
16:23:44.439659,0,8,48,67,-128,-27,-1,-2
16:23:44.446656,-6,-24,-61,-34,-128,-48,-8,-2
16:23:44.461647,-3,-9,-17,-128,-128,-30,-4,-4
16:23:44.462646,5,20,71,127,63,32,10,7
16:23:44.476637,15,3,-51,-128,-128,4,6,10
16:23:44.484633,-11,-14,-95,-125,-128,-68,-11,-6
16:23:44.499621,-4,6,43,53,-128,13,-2,-8
16:23:44.506619,-39,-58,-65,127,127,-56,-34,-32
16:23:44.521610,0,0,-80,-128,-128,-22,2,-2
16:23:44.522609,-4,-1,-8,127,127,101,5,0
16:23:44.536600,-3,29,26,-128,127,4,-11,-9
16:23:44.544596,7,0,-21,79,127,28,-5,-3
16:23:44.559585,2,0,-28,-88,127,81,20,12
16:23:44.566582,11,16,30,-128,-128,-117,-5,7
16:23:44.581572,-6,5,60,96,-128,106,9,-1
16:23:44.589564,-20,-23,-55,99,93,-72,-22,-19
16:23:44.604559,-10,-37,-8,-45,-76,-34,-10,-3
16:23:44.605559,39,83,40,80,127,39,21,18
16:23:44.619550,8,23,-7,127,18,28,9,5
16:23:44.626545,-52,-113,-88,-59,29,-21,-24,-20
16:23:44.641536,27,22,11,81,13,9,18,15
16:23:44.649528,7,11,10,-40,-30,1,0,4
16:23:44.664518,36,74,40,127,21,10,13,13
16:23:44.664518,-37,-74,-59,-56,-7,-11,-14,-16
16:23:44.679513,22,60,53,19,9,6,9,12
16:23:44.686508,-7,1,-20,-73,-42,14,6,-4
16:23:44.716490,-20,-37,-36,-128,-128,-21,-12,-15
16:23:44.717486,-35,-69,-21,127,55,34,1,-3
16:23:44.724483,16,51,30,-27,9,38,9,1
16:23:44.724483,26,66,48,127,127,40,-1,4
16:23:44.746471,19,42,19,-50,-128,-54,-2,9
16:23:44.747470,5,11,4,-18,17,16,1,4
16:23:44.761471,7,12,6,-128,60,-13,-5,0
16:23:44.769457,-7,-1,-61,-128,-128,-81,-18,-11
16:23:44.784447,-59,-122,-94,-35,-2,-21,-20,-26
16:23:44.784447,54,95,50,-92,-128,-35,9,23
16:23:44.799438,11,10,1,-106,-12,-1,6,13
16:23:44.806434,-15,-83,-58,127,38,11,0,-4
16:23:44.821424,-4,-16,-17,-75,127,3,-2,-8
16:23:44.829420,-8,3,5,39,-111,-14,-6,-3
16:23:44.844408,4,6,32,92,17,15,4,-2
16:23:44.844408,3,5,1,34,127,21,4,-2
16:23:44.859402,9,35,56,75,-17,-17,-4,-4
16:23:44.866394,-5,-7,-6,-36,-22,2,-5,-3
16:23:44.889383,11,29,15,4,118,33,7,4
16:23:44.889383,14,25,-2,0,127,6,3,7
16:23:44.904374,9,0,-16,-23,-34,-14,3,7
16:23:44.905370,-7,-24,-44,-55,-43,8,4,-3
16:23:44.919365,-9,-26,-22,-24,-54,-29,-1,-1
16:23:44.926358,-13,-11,4,54,-34,-5,-7,-7
16:23:44.941348,-24,-54,-54,-51,-22,0,-8,-9
16:23:44.949344,12,0,-7,93,127,-30,-1,9
16:23:44.964337,33,75,18,-96,-64,-2,3,5
16:23:44.964337,-13,-12,-20,-43,-25,-5,-1,-8
16:23:44.979328,16,28,34,127,94,-6,4,6
16:23:44.986321,1,15,4,-57,-76,-11,-1,0
16:23:45.001312,-2,-5,-9,-13,-6,-1,-2,-3
16:23:45.009310,12,19,-18,24,62,-28,-5,3
16:23:45.024300,-24,-30,-9,19,-90,-33,-13,-15
16:23:45.025297,-79,-128,-128,-88,-53,-35,-19,-28
16:23:45.039291,19,53,26,-71,-128,-15,2,5
16:23:45.046284,-12,-20,-23,32,-37,-29,-4,-4
16:23:45.061275,-18,-25,-12,49,-5,-5,-13,-9
16:23:45.069273,4,1,-1,-51,-38,-25,0,1
16:23:45.084263,-2,-14,-15,-28,-18,0,1,-1
16:23:45.085260,-37,-78,-84,-45,13,-21,-12,-10
16:23:45.107246,22,6,21,62,127,44,18,20
16:23:45.107246,14,16,23,28,89,28,6,7
16:23:45.122240,-1,-2,25,127,127,31,4,0
16:23:45.129236,-27,-65,-61,29,20,6,-7,-9
16:23:45.145225,25,44,34,-21,-27,-58,6,10
16:23:45.145225,-14,0,6,43,-128,37,-3,-10
16:23:45.159217,-2,20,-1,76,127,1,-7,-4
16:23:45.167213,50,112,39,20,-128,-51,-5,11
16:23:45.182202,14,86,101,127,-55,-5,-7,-9
16:23:45.189199,5,14,-19,-45,5,41,6,3
16:23:45.204190,5,-4,-7,24,127,30,9,10
16:23:45.205188,40,98,79,32,-128,-14,-4,8
16:23:45.219180,39,94,51,-70,-128,26,6,5
16:23:45.227172,-108,-128,-111,74,-30,70,-28,-48
16:23:45.242166,17,33,27,16,-128,-11,2,1
16:23:45.249159,-3,-8,-12,-35,-92,2,-2,0
16:23:45.264153,-30,-92,-26,103,127,54,10,-1
16:23:45.265149,68,127,103,127,127,16,16,25
16:23:45.279140,-18,-40,-39,-77,-98,-16,-11,-13
16:23:45.287135,21,40,6,-128,102,-34,8,10
16:23:45.302130,18,33,33,14,127,-22,-4,5
16:23:45.309125,20,33,10,-1,-23,-42,1,7
16:23:45.324116,30,75,82,127,127,99,19,14
16:23:45.325114,19,24,19,-42,-24,-4,6,11
16:23:45.339106,33,71,72,-8,25,17,11,12
16:23:45.347101,17,32,17,-128,21,-12,6,8
16:23:45.362092,28,55,32,-30,-128,-4,6,7
16:23:45.369088,5,15,5,-86,67,-8,-3,2
16:23:45.384079,-8,-51,-1,127,127,2,5,2
16:23:45.385078,40,73,23,-91,-53,-40,6,15
16:23:45.399067,-23,-36,4,72,83,24,-8,-11
16:23:45.414057,12,10,-5,-43,83,-23,4,5
16:23:45.422056,16,30,31,-65,-93,6,3,2
16:23:45.429051,-30,-55,-39,-78,-62,-10,-5,-8
16:23:45.444039,1,14,5,-76,-90,-7,-1,1
16:23:45.445040,-43,-104,-79,83,76,45,-1,-10
16:23:45.459033,-3,8,2,-31,-46,-1,-2,-3
16:23:45.467028,25,68,76,19,-104,29,12,8
16:23:45.482015,-9,-21,-16,-26,-14,3,-4,-1
16:23:45.489014,-7,-25,-36,67,127,-13,2,5
16:23:45.504005,-4,-10,-3,-71,-128,16,-1,-1
16:23:45.512000,-14,-55,-56,-74,-128,-22,-7,1
16:23:45.518996,6,13,15,60,-54,6,3,1
16:23:45.526991,9,23,12,-49,-94,-6,4,3
16:23:45.541983,-33,-73,-104,-67,127,24,-2,-8
16:23:45.548974,-37,-57,-35,-52,-67,-45,-19,-20
16:23:45.563968,4,20,23,-63,-95,-16,0,-1
16:23:45.578957,14,23,50,127,127,-9,3,8
16:23:45.586951,4,-4,-16,-128,127,-31,-1,5
16:23:45.586951,6,-2,-37,8,127,-19,8,9
16:23:45.602944,15,23,18,-5,-61,5,2,1
16:23:45.609939,6,22,25,-2,-37,5,0,0
16:23:45.631923,-1,-10,-30,127,127,4,1,8
16:23:45.632925,12,33,21,-94,-128,-6,4,3
16:23:45.646916,-26,-35,-25,-5,58,-7,-13,-17
16:23:45.646916,2,7,9,-15,-49,-5,0,5
16:23:45.661908,7,15,22,27,-24,-2,2,2
16:23:45.668902,-3,-1,4,0,-4,-3,0,-1
16:23:45.683891,6,8,7,54,20,14,7,6
16:23:45.691889,-5,-4,-4,-8,0,-4,-5,-1
16:23:45.706878,-3,-4,-7,-9,-9,-10,-4,-4
16:23:45.706878,2,-2,-1,-4,-5,-1,1,-4
16:23:45.721871,5,3,1,2,5,2,5,2
16:23:45.728864,7,2,1,4,-1,3,-4,-8
16:23:45.743854,-8,1,-2,-1,2,5,23,0
16:23:45.751853,-2,-5,-11,-13,-12,-21,0,-53
16:23:45.766845,-15,3,5,4,6,-1,16,-31
16:23:45.767843,-5,15,8,3,2,7,-83,20
16:23:45.781834,32,3,-2,2,5,18,4,49
16:23:45.788826,127,44,25,22,36,62,127,109
16:23:45.803818,-6,-12,-17,-16,-36,-119,123,-128
16:23:45.819810,127,64,11,6,5,42,127,-16
16:23:45.826807,-30,-17,-9,-9,-2,9,-128,127
16:23:45.826807,127,44,3,12,-35,-78,127,-128
16:23:45.841797,-13,-2,-23,-18,-32,-37,-20,-36
16:23:45.856788,-29,11,21,22,32,28,127,-42
16:23:45.863781,-16,-8,-5,-6,12,6,-28,-43
16:23:45.871779,16,-3,-47,-128,-77,-32,-19,15
16:23:45.886770,-11,-16,3,31,-15,-25,-35,-10
16:23:45.887767,18,13,27,109,-94,1,-25,-5
16:23:45.909752,14,39,28,127,122,21,5,2
16:23:45.909752,91,1,10,-63,-43,73,56,3
16:23:45.924743,11,3,15,-9,-8,-1,-21,-9
16:23:45.939737,127,-37,0,40,56,70,-89,30
16:23:45.946732,-72,15,34,-9,-7,-18,-7,-42
16:23:45.947731,18,25,-63,-59,54,30,39,7
16:23:45.961723,5,-19,-35,-33,9,-26,-10,-13
16:23:45.976714,2,15,-6,-128,-50,-17,1,16
16:23:45.991705,41,2,-13,-31,-128,-8,-4,1
16:23:45.992704,127,5,13,-10,122,-11,61,127
16:23:46.006696,-20,0,-10,-128,-121,-9,-39,2
16:23:46.007692,-13,5,2,16,59,19,11,-5
16:23:46.021686,9,10,18,-117,-128,-8,14,9
16:23:46.028681,-14,-19,-15,-2,-9,-18,-92,-9
16:23:46.044672,31,8,5,9,48,33,-41,7
16:23:46.051666,73,-1,-8,-109,-50,29,95,73
16:23:46.066659,-70,-7,9,8,-5,6,-13,-51
16:23:46.067657,84,-6,-6,-9,-101,-3,0,7
16:23:46.081649,-11,1,8,9,-33,-9,-9,-11
16:23:46.096640,-3,-6,-3,19,57,-1,-11,1
16:23:46.104634,4,10,39,-77,92,17,12,7
16:23:46.111631,-2,-5,-17,34,54,-17,5,8
16:23:46.126622,23,6,-1,-29,29,10,15,0
16:23:46.127619,-2,4,2,72,-2,0,5,2
16:23:46.141612,-11,-6,0,17,-128,-29,-19,-19
16:23:46.149605,-4,2,6,18,39,13,4,-6
16:23:46.164595,14,-2,-5,-34,-58,9,7,25
16:23:46.171594,2,10,22,58,-17,43,57,30
16:23:46.186585,1,3,-15,-71,-119,-21,-5,-1
16:23:46.187584,6,-1,6,14,40,14,26,32
16:23:46.201573,-3,0,0,28,63,3,-5,-7
16:23:46.216563,9,-2,-6,18,26,-20,-42,6
16:23:46.224561,-4,0,-1,10,13,23,1,-11
16:23:46.231557,4,-1,-1,19,-7,5,14,13
16:23:46.254544,-14,-7,-8,6,-2,2,-5,-19
16:23:46.254544,0,0,0,1,1,2,0,-3
16:23:46.261539,-4,-1,-2,-2,-1,0,5,4
16:23:46.269530,1,1,-2,-1,5,5,10,11
16:23:46.284521,-3,3,1,13,-30,2,-16,-10
16:23:46.291520,3,-3,-3,6,-28,11,12,10
16:23:46.306511,-3,1,-3,3,6,-12,-17,-13
16:23:46.307508,2,-2,-1,-1,7,2,-10,-5
16:23:46.321503,-1,0,0,-30,1,-2,1,-2
16:23:46.329497,-9,-2,-2,46,21,-3,-4,-7
16:23:46.344488,-1,-2,0,5,-12,-2,-7,5
16:23:46.351480,0,-1,-1,-4,-3,-1,-4,2
16:23:46.366474,1,-1,-2,-4,-4,-5,-2,-2
16:23:46.367473,-2,-4,-1,1,-1,-5,-2,-2
16:23:46.381462,-3,0,0,-4,-7,-5,-6,-4
16:23:46.389460,0,-1,0,-5,3,0,3,2
16:23:46.404451,-8,-3,-4,-3,-11,-8,-3,-1
16:23:46.411443,-4,-1,-2,-5,-5,-3,-4,0
16:23:46.434432,-4,-4,-1,-2,-2,-2,-2,1
16:23:46.434432,-1,-1,-1,-1,3,-1,3,1
16:23:46.441428,3,0,1,-30,-18,-3,-4,0
16:23:46.449420,-4,-3,-2,7,-31,-8,3,-5
16:23:46.464410,1,-1,1,4,21,6,3,6
16:23:46.471407,1,0,-1,-4,-1,-1,2,5
16:23:46.487402,-1,-3,1,-2,-4,-4,-11,-9
16:23:46.494395,0,0,-2,0,1,1,1,2
16:23:46.509383,1,-3,-3,-2,-2,-2,-9,0
16:23:46.509383,-3,-1,-2,0,1,-8,-1,-3
16:23:46.524377,0,-2,-3,-3,-3,-6,-4,-5
16:23:46.531370,-2,-2,-2,-4,-10,-1,1,-3
16:23:46.554358,2,-2,-1,-2,-3,-3,-8,-1
16:23:46.555355,-4,0,0,1,1,-6,-5,-5
16:23:46.569350,-1,0,-3,-3,-5,-3,-4,-1
16:23:46.570349,2,1,0,3,-5,-1,4,5
16:23:46.584340,-3,3,2,2,4,7,-8,-5
16:23:46.591336,-3,-1,-4,-4,-5,-3,-5,-3
16:23:46.607325,2,-2,2,1,2,9,17,3
16:23:46.614321,1,-2,0,-2,3,2,-7,-10
16:23:46.629312,-6,-4,-3,-4,-7,-12,-15,-11
16:23:46.630311,-3,1,2,4,0,-1,11,-1
16:23:46.644303,1,-8,-7,-6,-3,4,-20,-19
16:23:46.652295,-5,0,1,4,-1,7,4,-14
16:23:46.667287,-3,1,-2,-3,-4,3,8,-1
16:23:46.674285,-3,-3,0,-5,2,0,1,-7
16:23:46.689276,2,2,0,0,-2,1,1,4
16:23:46.690272,0,-1,-2,-1,-1,5,1,-2
16:23:46.704265,1,4,3,4,-1,-13,-14,-3
16:23:46.712261,-8,-4,1,-2,-2,-1,6,-7
16:23:46.727252,2,0,-1,1,-1,-4,-11,-5
16:23:46.742240,-5,-1,-2,-2,-1,0,5,6
16:23:46.749236,-3,-1,1,-2,1,0,7,5
16:23:46.750237,-2,-4,-3,-6,-6,-4,-7,-2
16:23:46.764229,5,0,-1,1,2,1,0,3
16:23:46.772225,-1,0,-1,-4,-4,-5,0,1
16:23:46.787214,1,1,2,1,1,0,3,8
16:23:46.794211,-2,-2,-3,-4,-9,-4,6,8
16:23:46.809202,-2,-4,0,-2,-5,-4,10,-8
16:23:46.810201,-9,-3,0,-1,0,-9,-44,-8
16:23:46.831186,-3,-5,-3,0,-6,-3,5,0
16:23:46.832184,-1,-3,1,0,-3,-7,-3,-2
16:23:46.847176,-5,0,-2,-4,-7,-4,-5,-6
16:23:46.854174,-4,-1,-3,-5,-1,1,-9,-5
16:23:46.869165,1,-2,0,0,-5,3,2,0
16:23:46.877160,-2,-1,-1,3,6,8,0,-2
16:23:46.884155,-1,-3,-3,-4,-1,1,-2,-1
16:23:46.892147,-3,-3,-1,0,1,7,13,1
16:23:46.907142,6,2,-1,0,6,4,5,6
16:23:46.914137,-5,0,-1,-1,-3,0,3,-3
16:23:46.929128,-2,1,-2,-2,-1,0,0,-8
16:23:46.929128,0,0,0,2,1,0,-3,-5
16:23:46.944118,-3,0,-1,-2,-2,-6,-7,0
16:23:46.952113,-4,0,0,1,1,4,1,-1
16:23:46.967104,-5,-1,-1,-1,-2,1,7,-4
16:23:46.974100,-2,0,0,0,-1,-1,-4,0
16:23:46.997083,0,-4,-1,-1,1,3,-12,-2
16:23:46.997083,-6,-4,-3,0,-4,-4,-5,-5
16:23:47.004081,-4,-3,0,-2,-3,-3,-3,-6
16:23:47.019072,0,2,0,-1,-5,-3,0,2
16:23:47.027068,-11,-1,-4,-1,-2,-7,-14,-9
16:23:47.049051,5,-2,-2,-1,-2,2,11,13
16:23:47.050050,-4,-1,-3,-1,-6,-5,-3,-4
16:23:47.050050,-2,0,-3,2,1,0,9,3
16:23:47.064045,1,0,1,-1,-2,-2,1,-6
16:23:47.072040,0,-1,2,3,2,5,1,-1
16:23:47.087027,0,-2,-1,1,0,0,-2,4
16:23:47.094023,-2,-3,-2,0,3,4,-1,-1
16:23:47.109017,0,-3,-2,0,0,-3,-7,-1
16:23:47.110013,-1,0,0,-4,-4,3,5,0
16:23:47.124008,0,0,1,0,-3,-4,-3,-4
16:23:47.132002,-2,-3,-2,-2,-1,-4,1,0
16:23:47.146994,-4,0,0,-3,0,-2,-9,-8
16:23:47.153989,-2,-1,-2,-1,-2,1,1,-3
16:23:47.168980,1,2,3,0,1,-1,-11,-4
16:23:47.169979,-3,-1,-4,-2,-3,-4,-6,-5
16:23:47.183970,3,-1,0,0,3,1,6,4
16:23:47.191963,-1,0,-1,-1,2,4,-3,-3
16:23:47.206957,-2,-2,1,-1,-1,-2,2,-2
16:23:47.213949,-1,0,-3,-1,-2,-2,-2,-1
16:23:47.228943,-3,-3,-1,-2,-5,-5,-3,-5
16:23:47.229942,0,2,2,3,3,2,0,2
16:23:47.243932,-3,-3,-1,-3,-1,3,-4,-4
16:23:47.251929,-1,-1,-1,1,0,-2,2,-1
16:23:47.266917,-3,-2,1,-3,-1,-3,-2,-2
16:23:47.273913,-5,-1,-3,-5,-3,5,8,3
16:23:47.288906,0,-1,-5,0,2,-1,-4,-5
16:23:47.289903,0,-4,-3,0,0,-1,-3,-3
16:23:47.303895,-1,0,0,-3,1,2,0,-1
16:23:47.310915,0,0,1,2,2,2,1,1
16:23:47.326881,-3,1,0,1,3,-4,-3,0
16:23:47.333876,-3,-1,-4,0,-4,-4,0,-2
16:23:47.356861,0,0,-1,0,0,1,-4,2
16:23:47.356861,-1,-2,1,2,0,1,0,0
16:23:47.363858,-3,-2,-1,1,1,6,-3,-10
16:23:47.371863,3,-1,-1,3,9,8,5,7
16:23:47.386843,-6,-4,-4,-3,-3,4,-14,-8
16:23:47.393839,-1,-3,-1,-3,-2,-3,2,1
16:23:47.408830,-2,-3,0,-3,1,7,-1,-1
16:23:47.416827,-2,0,0,-2,0,-3,-2,-4
16:23:47.423821,0,-2,-1,0,2,-1,5,18
16:23:47.431818,-5,-3,-4,0,-5,-3,-9,-14
16:23:47.446809,2,-1,0,-2,0,-7,4,11
16:23:47.453802,1,-5,-4,-3,0,-3,-3,0
16:23:47.469795,-4,-1,-1,-2,-4,-11,-24,-9
16:23:47.476791,1,0,-4,-3,-1,3,16,9
16:23:47.491782,-1,0,2,1,-1,3,1,-4
16:23:47.492780,1,-1,2,-1,-2,-1,1,2
16:23:47.506772,1,-4,-5,0,4,1,-11,0
16:23:47.513765,10,-5,-2,-4,-1,-7,-14,-1
16:23:47.529755,2,2,-1,1,2,-4,0,-7
16:23:47.536754,-4,0,0,0,-2,1,1,-11
16:23:47.551745,-2,0,-3,-2,-5,-17,-35,-3
16:23:47.552742,0,-2,-2,-2,-3,0,12,-5
16:23:47.573728,-1,-2,0,-3,-3,-4,-10,-3
16:23:47.574727,-1,0,-1,0,-3,-4,1,-2
16:23:47.589718,1,-1,-3,1,-1,7,5,-2
16:23:47.611708,3,1,2,1,-3,-2,3,3
16:23:47.612704,-1,0,-3,-1,1,-5,-3,-2
16:23:47.612704,-2,-3,-2,-3,-3,-4,-6,-2
16:23:47.626698,-3,-2,0,-1,-2,-1,-14,-7
16:23:47.634690,0,-3,-2,-1,-4,-6,-16,3
16:23:47.649681,1,1,2,1,0,-4,-14,8
16:23:47.664672,-6,-2,-1,-5,-6,6,24,-7
16:23:47.671671,5,1,1,1,-3,-1,9,-1
16:23:47.672670,1,-3,3,-2,0,-2,1,-1
16:23:47.686661,-3,0,-1,-1,0,-2,0,-1
16:23:47.693657,2,1,-1,-2,0,-3,2,8
16:23:47.709647,1,-2,2,2,0,-2,-6,-6
16:23:47.716643,3,2,1,-2,3,20,25,6
16:23:47.731633,-2,-1,-1,0,-2,0,-6,-2
16:23:47.732631,2,2,0,2,-4,-4,-1,0
16:23:47.746624,-2,-2,0,-3,1,-2,-1,0
16:23:47.754620,0,0,0,-4,3,-2,8,7
16:23:47.769610,-2,-4,1,0,-2,-8,-26,-1
16:23:47.776606,-1,0,-2,-1,2,1,3,5
16:23:47.799589,-3,-4,-2,0,0,-6,3,-4
16:23:47.799589,2,5,2,1,5,13,3,10
16:23:47.806587,1,0,-3,-8,-3,-9,3,23
16:23:47.814582,-3,0,-2,-3,-2,-3,1,-12
16:23:47.829573,0,-1,-1,-1,-4,1,-5,0
16:23:47.836569,1,0,-2,3,-3,-5,-2,1
16:23:47.851559,-6,-5,-3,-2,-3,-13,-8,-5
16:23:47.852557,-1,-1,-1,0,2,-3,1,-1
16:23:47.866550,-4,-4,0,-4,-5,-4,4,-5
16:23:47.889537,-3,-4,0,-4,-4,-1,-3,-1
16:23:47.896532,-2,-1,-1,0,4,0,0,-1
16:23:47.897532,0,1,1,0,-1,1,-1,4
16:23:47.911523,3,-1,1,1,1,-1,-4,-1
16:23:47.919518,-1,-1,0,-1,1,0,0,2
16:23:47.926512,4,-4,-2,-4,-1,2,-10,4
16:23:47.934509,-1,0,0,-2,-1,-1,-1,-6
16:23:47.949500,3,4,1,-3,0,2,15,6
16:23:47.956494,0,-2,-4,0,-4,6,3,-5
16:23:47.971486,-2,-2,0,0,2,0,-1,-6
16:23:47.972486,8,2,3,4,2,1,5,13
16:23:47.986474,7,1,-2,-4,-8,-8,-2,1
16:23:47.994472,-1,1,0,-1,-1,-1,-2,-3
16:23:48.009462,1,0,0,3,0,0,0,-3
16:23:48.016455,-1,2,0,-1,-1,0,10,0
16:23:48.031449,1,-1,-1,-2,0,4,1,4
16:23:48.032445,0,0,1,-2,2,-8,-3,19
16:23:48.046437,-2,-2,-1,0,-3,-1,1,-7
16:23:48.054435,3,0,1,1,1,5,5,-1
16:23:48.069426,0,-4,1,-3,2,7,-8,-3
16:23:48.076418,2,-3,0,2,-1,1,-1,-3
16:23:48.091412,-2,-3,-1,-2,4,-4,-2,-3
16:23:48.092411,-2,1,-3,0,0,-1,0,-3
16:23:48.106401,3,-1,-1,0,-6,-3,10,4
16:23:48.114398,9,-1,-2,-2,0,0,2,4
16:23:48.129389,-3,0,0,1,3,5,36,2
16:23:48.137383,0,3,2,0,2,-7,-10,-1
16:23:48.151375,0,-1,-2,-1,0,-3,0,2
16:23:48.152372,-4,0,0,-5,-4,-3,-3,-3
16:23:48.167363,-1,1,-1,2,2,1,4,0
16:23:48.174361,0,1,-1,-1,2,0,-2,-2
16:23:48.189352,5,-1,0,-1,-5,3,8,2
16:23:48.196345,0,1,1,1,0,3,2,4
16:23:48.211338,-3,-1,0,1,1,0,-10,-10
16:23:48.219330,1,-1,0,-2,-1,-8,0,-1
16:23:48.227328,1,0,-3,-1,-4,-5,-5,-5
16:23:48.234324,0,-3,1,-2,1,-3,-1,-5
16:23:48.249313,1,-3,1,-1,-2,-6,-12,0
16:23:48.256307,-1,0,-1,1,-1,1,-14,-6
16:23:48.271300,-2,-2,-1,-1,-1,-3,23,3
16:23:48.272299,5,-1,4,0,4,1,3,8
16:23:48.287292,-1,-2,-1,-3,0,3,0,1
16:23:48.309278,6,0,0,1,2,-2,-3,2
16:23:48.309278,0,-1,1,-3,-4,-7,4,1
16:23:48.317273,-1,1,0,-3,-3,5,0,1
16:23:48.331263,-1,-1,-2,-3,3,-4,-5,-3
16:23:48.332261,-3,0,0,0,0,0,-4,-3
16:23:48.347255,-1,-1,-1,-1,0,-2,-19,5
16:23:48.354250,-1,-3,-1,-1,1,4,4,-2
16:23:48.376234,-3,-3,0,-3,-3,2,-3,-4
16:23:48.377233,4,3,3,0,4,8,6,12
16:23:48.392224,0,-3,3,-4,-5,-6,-11,-4
16:23:48.399222,4,2,3,0,5,9,19,28
16:23:48.414212,1,0,2,3,4,0,0,-1
16:23:48.422206,1,0,2,-1,0,-3,6,-9
16:23:48.429204,8,-1,-5,-1,-2,1,8,1
16:23:48.437199,-2,-2,3,0,0,11,-1,-5
16:23:48.452187,-2,-2,-3,-4,-1,-2,-3,-6
16:23:48.459186,2,1,0,0,1,3,4,1
16:23:48.474177,-1,-3,-2,-1,1,-4,-6,-7
16:23:48.475176,0,1,0,-2,0,2,2,-1
16:23:48.496161,-5,-2,-3,-1,-1,1,-7,-6
16:23:48.497160,4,0,1,2,2,3,5,15
16:23:48.512153,0,2,-3,-4,-7,-2,-15,-3
16:23:48.519149,-1,-1,-2,-1,-1,-2,1,-4
16:23:48.534140,3,-1,-1,0,2,2,2,-3
16:23:48.535138,2,0,1,-3,-1,0,-7,-5
16:23:48.549130,3,-4,0,-4,-1,0,-9,0
16:23:48.557126,1,-1,-1,-2,2,1,-1,-4
16:23:48.572117,-3,-1,-1,-2,-6,-7,-13,-9
16:23:48.579109,-2,1,-1,-1,-1,0,-1,0
16:23:48.594103,0,0,-3,-1,-1,-4,-18,-12
16:23:48.595102,2,2,2,2,3,2,11,3
16:23:48.609093,0,0,-2,1,-3,-6,-3,0
16:23:48.624084,2,-1,-2,-3,1,2,-12,-4
16:23:48.632077,0,1,3,-1,-1,4,3,-2
16:23:48.639075,2,3,0,1,1,2,-4,-3
16:23:48.654066,0,1,2,1,1,0,-10,0
16:23:48.655065,1,0,-2,-2,-1,-1,17,0
16:23:48.669055,4,2,3,4,4,-1,4,13
16:23:48.684047,2,-2,-3,0,0,-2,6,-2
16:23:48.692040,-4,0,-3,0,-3,-6,5,-5
16:23:48.699037,1,4,3,2,1,0,-1,2
16:23:48.714029,-4,-4,-5,1,-2,-6,-7,1
16:23:48.715027,-5,0,-1,-1,2,-1,-4,-1
16:23:48.729018,4,3,-1,2,-1,3,-11,1
16:23:48.737015,1,0,0,-1,1,0,-8,1
16:23:48.752006,-3,-2,-1,-1,1,0,-14,-10
16:23:48.758998,-1,-1,-3,1,-2,-17,-22,6
16:23:48.773992,0,1,0,-3,-1,0,2,-6
16:23:48.774991,0,-4,-3,-2,0,-1,-2,-8
16:23:48.788979,1,0,-1,-1,0,-1,0,1
16:23:48.796978,0,0,0,2,1,3,0,2
16:23:48.811969,-2,-1,-1,0,-1,3,-6,-4
16:23:48.818964,0,-1,-2,-2,0,-1,2,-3
16:23:48.833955,1,1,-1,-1,6,3,-1,-5
16:23:48.834954,-2,-1,-2,3,0,-1,8,-4
16:23:48.848946,0,-2,0,-3,-5,-1,-10,-1
16:23:48.856941,0,-4,-1,-1,0,3,3,0
16:23:48.871932,-1,0,-1,-3,0,-2,-2,-4
16:23:48.878924,1,-2,1,-2,2,7,5,0
16:23:48.893918,0,0,1,-2,-1,-2,-3,7
16:23:48.894915,-7,0,-3,-3,-4,-4,-1,-13
16:23:48.909906,-5,-1,1,-1,-4,-6,-9,-4
16:23:48.916904,-3,0,-1,-3,-2,0,-2,-3
16:23:48.931895,1,-1,-1,0,-2,0,0,-1
16:23:48.938888,-1,1,0,0,1,2,6,3
16:23:48.953882,0,1,-2,1,1,6,3,1
16:23:48.954880,-2,-2,-1,-1,0,0,0,-3
16:23:48.969872,-3,0,-1,-4,-3,-2,-1,0
16:23:48.976867,1,-1,1,-1,-2,-1,-4,-3
16:23:48.991858,0,-4,-1,2,0,1,-8,0
16:23:48.998851,3,0,1,-2,-4,-10,-7,9
16:23:49.013844,-2,-1,0,-2,-3,1,1,2
16:23:49.014841,0,-2,-1,1,-2,0,3,1
16:23:49.029835,0,0,-1,-3,-2,0,-2,0
16:23:49.036830,-1,1,-2,1,3,-7,-4,1
16:23:49.051821,-1,-1,-1,0,-4,-7,-9,-11
16:23:49.059813,1,1,-1,-1,-1,0,-3,-1
16:23:49.073807,-2,-1,-4,0,1,-1,-5,-5
16:23:49.074804,2,-3,-1,1,-1,-4,-6,-1
16:23:49.089798,-1,-3,-3,-1,-1,1,1,-5
16:23:49.096793,-3,-4,1,-2,1,-2,-7,-8
16:23:49.111784,0,0,0,-2,1,6,9,3
16:23:49.119780,0,1,-1,0,0,-9,-9,2
16:23:49.133769,2,-2,-3,-1,-5,-3,-6,-7
16:23:49.134770,-2,3,0,0,-1,1,3,-1
16:23:49.149757,0,0,-1,0,-3,-1,1,2
16:23:49.156756,-1,-2,0,-3,4,1,-3,-3
16:23:49.171747,-1,2,2,1,4,0,-1,0
16:23:49.178743,3,1,-2,1,3,1,1,-3
16:23:49.193733,2,-1,0,-1,2,2,-7,0
16:23:49.194730,0,0,1,1,0,-2,-2,1
16:23:49.216716,-4,0,-1,-1,-2,-3,7,0
16:23:49.224711,-1,3,-3,-1,-1,-7,-4,-1
16:23:49.239705,-3,-2,0,-2,-3,-3,-2,-1
16:23:49.239705,0,-4,-1,-3,-2,-4,0,-3
16:23:49.253694,-2,0,-3,-2,-3,-8,-3,-3
16:23:49.254693,-3,2,1,-3,3,4,2,-3
16:23:49.276679,-3,-2,-3,-1,-5,0,-4,-5
16:23:49.277682,2,0,0,1,-1,4,-1,0
16:23:49.299666,-3,3,0,0,2,-2,1,2
16:23:49.300665,0,-2,-2,-1,-1,-3,0,-3
16:23:49.314664,-3,-1,-1,-1,-2,-5,-5,-2
16:23:49.321655,2,5,3,4,6,1,16,11
16:23:49.336646,0,2,-3,0,-2,-4,-7,-4
16:23:49.337644,-3,-2,-1,-3,0,2,-2,-5
16:23:49.351634,1,-2,-2,-2,-3,-2,17,8
16:23:49.359631,-2,-1,-1,2,-3,-3,-5,-3
16:23:49.374621,-3,-1,1,1,0,-3,0,-3
16:23:49.381618,1,0,1,-2,1,1,1,1
16:23:49.396609,1,-1,-2,-3,-2,-2,-2,-1
16:23:49.397605,1,2,-2,2,3,2,-13,2
16:23:49.411599,4,0,-1,0,-1,-2,6,9
16:23:49.419595,1,-2,0,-1,3,1,6,1
16:23:49.434585,-1,-1,0,1,-1,-4,-5,-3
16:23:49.441581,-2,-2,-2,-2,-3,-1,-4,-1
16:23:49.464564,-1,-2,-2,-4,-1,-1,3,1
16:23:49.464564,-3,2,-1,-2,-2,-3,-3,0
16:23:49.471562,3,1,1,-1,-3,-1,-1,1
16:23:49.479557,-2,-1,-3,0,-1,-1,-2,-1
16:23:49.494545,1,1,-1,0,-2,2,1,3
16:23:49.501544,-2,0,-2,-2,1,1,1,-2
16:23:49.516532,-1,-3,-1,0,-5,-7,2,-2
16:23:49.517534,-3,1,-1,0,-1,-3,-3,2
16:23:49.531524,-3,-1,2,-3,-2,-4,-8,-5
16:23:49.546515,-1,-3,-1,1,-5,-4,-1,-1
16:23:49.554512,-1,-2,-5,-4,0,-6,-11,8
16:23:49.561507,0,-2,-1,-1,-2,-3,0,-4
16:23:49.584491,-1,-2,-1,0,-1,-1,-4,-2
16:23:49.584491,-4,-2,0,-1,1,4,-1,0
16:23:49.591488,3,4,3,3,4,7,6,0
16:23:49.606476,-2,-3,-2,-1,-2,-2,0,1
16:23:49.614474,2,-4,-1,-1,-1,-3,4,-6
16:23:49.621470,2,1,3,0,1,-1,-8,1
16:23:49.636461,-4,0,-2,-1,-1,1,1,-4
16:23:49.637460,-2,-1,-3,-3,-2,-1,6,7
16:23:49.651449,1,-2,-1,-1,0,-4,-1,-1
16:23:49.659447,-1,-2,-3,-4,-6,-3,-5,-4
16:23:49.674438,-2,-3,-2,-3,0,2,-1,-3
16:23:49.681432,-3,-2,1,0,1,-2,0,-1
16:23:49.696424,1,-1,-1,0,1,2,-1,-4
16:23:49.697423,0,-1,1,1,5,1,0,0
16:23:49.711413,-1,-1,-4,-2,-1,1,-3,-3
16:23:49.719410,-3,-2,-1,-2,-2,-4,-3,-1
16:23:49.734401,-1,1,-2,2,-3,-1,-22,-5
16:23:49.741394,-2,-4,-5,-6,-5,-1,5,2
16:23:49.756387,-3,-2,-1,-1,2,0,-1,-1
16:23:49.757384,-1,0,-1,1,-3,0,1,3
16:23:49.771376,-2,-1,-3,-6,-8,-1,-3,-1
16:23:49.779373,-1,1,-3,-3,-4,1,2,0
16:23:49.794364,0,2,2,0,-2,1,-3,2
16:23:49.802356,3,0,-2,1,1,0,-1,2
16:23:49.824345,1,0,0,0,-5,-6,0,-3
16:23:49.825342,-1,1,0,-2,-3,-1,1,2
16:23:49.831338,-1,1,2,0,1,0,0,-2
16:23:49.839336,-1,3,2,1,1,0,1,1
16:23:49.854327,1,-1,2,0,1,0,1,2
16:23:49.861319,-2,-1,0,-3,2,5,12,0
16:23:49.876313,0,-3,-2,-1,-2,3,-7,2
16:23:49.877310,-1,2,-1,-2,3,0,1,0
16:23:49.892302,-2,2,0,1,0,0,1,-7
16:23:49.899297,0,0,2,2,-1,1,-1,0
16:23:49.914290,-1,-1,-2,1,-1,-6,-6,-3
16:23:49.922285,-1,-2,-2,-2,-2,0,-2,1
16:23:49.936275,1,1,2,1,-1,-3,2,1
16:23:49.937273,-2,-2,1,0,0,9,1,3
16:23:49.952264,-2,-4,-3,-4,-5,1,-2,-3
16:23:49.959262,-1,-2,-3,-2,-2,-5,10,-1
16:23:49.974253,0,1,0,1,-1,4,5,2
16:23:49.981250,-1,-2,-1,0,1,-6,7,8
16:23:49.996236,-4,-2,-1,1,-3,-3,-3,-3
16:23:49.997236,1,1,-1,-1,-3,0,-2,-1
16:23:50.012229,0,1,0,0,0,-3,-2,-6
16:23:50.019226,-3,0,0,-3,-1,0,1,2
16:23:50.034216,5,-3,-1,-1,-5,-3,-2,-3
16:23:50.042212,-3,0,2,1,0,0,1,1
16:23:50.056199,0,-3,-2,-3,-1,-1,0,1
16:23:50.057202,-5,-1,-2,-1,-4,-3,-5,0
16:23:50.072193,-5,-4,-5,-6,-3,-4,-2,-6
16:23:50.079188,-4,-1,-5,-3,-3,-4,0,-1
16:23:50.094179,-2,0,-1,0,-4,-1,-2,-4
16:23:50.102174,0,-2,-3,-1,0,1,-6,0
16:23:50.117165,1,1,0,1,-4,-5,-1,0
16:23:50.117165,-2,-1,1,0,0,-1,-1,1
16:23:50.132156,1,-2,0,-1,1,-2,0,-2
16:23:50.139151,-3,-3,-3,-4,-5,-3,-2,-3
16:23:50.154142,-2,-1,-3,-2,-5,-3,-1,-5
16:23:50.162135,-1,0,1,-2,-2,-4,-7,-3
16:23:50.177128,-1,-3,-1,0,0,-3,2,2
16:23:50.177128,-4,-1,0,0,-3,2,5,4
16:23:50.192116,0,1,-4,-1,0,-2,-3,-1
16:23:50.199112,-2,-2,-4,-3,-4,-1,-1,-1
16:23:50.214102,0,-2,-1,1,3,2,-5,4
16:23:50.222097,1,-4,-1,0,2,0,5,-1
16:23:50.237091,-1,1,-2,-1,0,1,1,-4
16:23:50.244087,0,0,-1,2,4,3,3,5
16:23:50.252082,-3,-2,-1,-3,-5,-3,-6,-3
16:23:50.259078,1,-3,-1,0,0,-1,-6,-7
16:23:50.274069,-2,0,-3,0,-5,-7,-2,0
16:23:50.289059,-3,0,1,1,-1,0,3,-3
16:23:50.297054,2,-3,-3,-2,-1,-2,1,-5
16:23:50.304050,-2,-3,1,-2,-4,-5,-1,1
16:23:50.319041,-3,-2,1,-2,0,-1,9,1
16:23:50.320041,0,-3,-1,2,2,3,-2,1
16:23:50.334030,-3,-3,-1,-4,-3,-1,0,-1
16:23:50.342026,0,0,-2,-3,0,-1,-4,1
16:23:50.357018,-1,-2,-1,-1,-1,5,0,-4
16:23:50.364013,-2,0,4,-1,-2,1,2,3
16:23:50.379004,0,0,-1,0,-3,0,7,1
16:23:50.380004,1,-2,-1,0,0,7,2,-2
16:23:50.393993,-2,-1,-1,-4,-1,0,-1,-4
16:23:50.401989,2,-3,1,1,-4,1,1,2
16:23:50.416981,-1,-4,-2,1,0,-3,-4,-1
16:23:50.423975,3,3,0,0,1,0,-1,-4
16:23:50.438967,0,0,-3,1,0,1,2,3
16:23:50.439967,1,-3,-1,-1,-1,-1,5,-1
16:23:50.453956,1,-1,-1,0,-2,-1,-4,-3
16:23:50.461953,-3,0,0,0,3,8,4,4
16:23:50.476944,-3,-1,-3,-3,-2,-1,-4,-3
16:23:50.483936,1,0,2,-1,2,3,-1,-1
16:23:50.498927,-1,-3,0,-2,-5,-5,-2,-3
16:23:50.499928,-3,-1,0,2,2,0,0,2
16:23:50.513918,-4,-1,-5,-2,1,-4,3,-1
16:23:50.521916,-2,2,0,1,0,0,-3,0
16:23:50.536907,1,-1,3,2,0,-5,-17,-3
16:23:50.543900,2,-3,0,-1,-1,1,2,-1
16:23:50.558893,-1,-4,-1,1,-2,-3,-11,1
16:23:50.559891,1,-3,-1,-3,-3,-3,0,1
16:23:50.573884,0,0,-3,0,1,5,1,2
16:23:50.581879,1,0,-3,-2,2,-3,0,-3
16:23:50.603866,1,1,0,-2,-3,-1,-4,0
16:23:50.611861,-1,0,1,-4,-2,-1,0,1
16:23:50.626849,-1,-4,-1,-3,-4,-3,3,-3
16:23:50.626849,-4,-4,-1,-2,-4,4,8,1
16:23:50.633846,-3,-2,-1,-1,-3,-2,-4,0
16:23:50.641842,-1,-3,-1,-1,-1,-1,5,2
16:23:50.656833,-1,-2,-3,-2,1,0,0,-2
16:23:50.663826,-1,2,-1,-1,-3,-3,-1,-4
16:23:50.678816,-1,1,1,-1,-1,1,6,-1
16:23:50.679816,0,0,1,2,2,-1,-2,1
16:23:50.694807,0,-2,0,-2,1,-4,0,-1
16:23:50.701805,-1,2,-4,-2,1,-1,0,1
16:23:50.716796,-3,-2,-2,-2,-1,1,1,-4
16:23:50.724791,0,0,-1,0,1,1,0,-1
16:23:50.738780,-4,-1,-1,-3,-4,-2,-1,-2
16:23:50.739779,-2,1,-2,2,-2,-2,1,-1
16:23:50.754769,1,0,-1,2,4,4,-2,0
16:23:50.761769,-1,-2,1,-1,0,0,0,-1
16:23:50.776759,1,-2,-4,-3,2,0,-1,-1
16:23:50.784754,-3,1,-1,-1,-3,0,-1,3
16:23:50.798743,1,0,1,0,-4,-5,-1,1
16:23:50.799742,-1,-1,0,1,-3,0,3,1
16:23:50.821731,-2,-3,-1,-1,-3,0,-7,-2
16:23:50.822730,1,2,0,-1,0,6,3,1
16:23:50.836722,0,1,1,2,-5,-3,0,1
16:23:50.843718,0,0,3,-3,0,2,2,3
16:23:50.859705,-2,-3,-1,-1,-1,-2,-1,-3
16:23:50.859705,-2,0,-1,3,1,1,1,2
16:23:50.874696,-1,1,-5,-2,-3,-7,-6,-9
16:23:50.881694,-1,0,-2,3,4,1,0,5
16:23:50.896686,0,-1,1,0,-3,4,-5,-2
16:23:50.904680,2,-2,-3,-1,-1,2,-7,0
16:23:50.919668,-3,2,-1,1,2,5,0,0
16:23:50.920670,-3,-2,1,-1,-4,-3,-2,-4
16:23:50.934662,4,2,3,3,3,3,0,4
16:23:50.941658,-2,-1,-1,-3,-5,2,2,0
16:23:50.956648,0,-1,3,1,3,2,-2,0
16:23:50.971639,-3,-2,0,-5,-2,-2,-9,-7
16:23:50.978635,-3,-3,-1,-1,2,4,3,0
16:23:50.979631,-4,0,0,-2,0,1,-1,-2
16:23:50.994622,0,2,-1,0,-3,-1,11,-6
16:23:51.001621,3,4,0,-2,-1,5,2,4
16:23:51.016611,-2,-1,-3,-2,-3,-1,0,-2
16:23:51.024603,-1,-4,-5,-3,-3,-1,4,2
16:23:51.039596,0,0,-2,1,1,8,4,-1
16:23:51.039596,0,0,0,0,1,-1,2,1
16:23:51.054588,1,1,-2,-4,-2,0,1,0
16:23:51.061584,-2,-2,2,1,5,1,-1,2
16:23:51.076575,3,-2,2,2,-1,1,0,-4
16:23:51.084570,0,1,1,-1,-5,-3,1,3
16:23:51.099558,0,0,0,4,2,0,3,3
16:23:51.099558,-3,-3,-1,-4,2,-1,11,1
16:23:51.114551,-2,2,1,1,0,-2,5,4
16:23:51.121547,-1,-2,0,-2,-3,0,-1,-2
16:23:51.136536,0,0,1,0,0,-3,0,-1
16:23:51.151529,-1,-3,-5,-1,1,-1,-7,-3
16:23:51.159522,-1,1,0,-3,1,5,2,3
16:23:51.159522,-1,1,0,-1,1,1,0,1
16:23:51.174514,-3,0,-1,-4,-6,-3,-2,-1
16:23:51.181510,0,-3,-1,-5,-4,0,-7,1
16:23:51.196499,-4,-1,-2,-3,-3,1,0,-2
16:23:51.204496,-2,-2,-3,1,1,-2,-2,-1
16:23:51.219486,1,1,2,-1,-1,-6,-14,-3
16:23:51.226479,1,-5,-1,-4,-2,4,11,10
16:23:51.241473,-1,0,-3,-1,-1,2,0,-5
16:23:51.242469,-1,-2,0,2,-1,-1,5,0
16:23:51.256461,-4,1,0,1,2,-1,-1,2
16:23:51.264458,-1,0,0,-1,-2,-1,-4,-1
16:23:51.279450,-2,0,-2,-4,0,0,2,-3
16:23:51.286443,-2,-1,-4,-3,0,-1,2,1
16:23:51.301436,-2,-1,0,-2,-4,-8,10,0
16:23:51.302433,-4,-4,-4,0,2,2,2,-2
16:23:51.317425,-3,-2,-1,1,0,0,-5,-4
16:23:51.324422,1,1,-2,0,-2,-1,-4,-3
16:23:51.339413,-1,1,0,0,-3,1,-6,-4
16:23:51.346406,-3,-3,-4,-1,-1,1,7,1
16:23:51.361398,-3,-3,-2,-2,-2,-3,-3,-6
16:23:51.362398,1,0,0,-4,-4,-2,0,1
16:23:51.377390,-2,-1,1,-3,0,-4,10,1
16:23:51.384385,2,-4,-1,1,2,0,-3,4
16:23:51.406370,-3,-1,1,1,0,0,-2,0
16:23:51.407368,5,-1,0,1,-4,-4,-1,1
16:23:51.421361,1,-1,0,-1,-1,-2,9,0
16:23:51.422359,0,0,-3,1,0,2,2,2
16:23:51.437353,-2,0,-1,0,2,-6,-11,-6
16:23:51.444346,-3,-1,1,-1,0,-3,2,1
16:23:51.459339,-1,-2,0,-1,-3,-1,-1,0
16:23:51.466334,1,-4,-2,-2,0,2,6,2
16:23:51.482322,-3,-2,0,1,2,1,0,-1
16:23:51.482322,1,0,0,1,2,-3,2,5
16:23:51.496313,-2,-3,-1,-1,-1,0,-7,-4
16:23:51.504311,-3,-1,1,0,-3,-2,-6,-4
16:23:51.519302,0,-3,-3,-3,-4,-3,-13,-6
16:23:51.526298,-1,-3,-1,-1,0,1,-3,1
16:23:51.549281,-1,2,-2,-1,-2,1,-3,-3
16:23:51.550286,1,-2,-1,-1,-4,-6,0,-3
16:23:51.556279,0,0,0,2,-1,2,-8,0
16:23:51.564274,-1,1,-1,-2,-1,-4,4,2
16:23:51.579265,-4,-2,-1,-1,5,4,2,-3
16:23:51.587263,0,0,-3,-2,0,-1,3,-2
16:23:51.602250,0,1,0,0,1,0,1,4
16:23:51.609247,-1,-1,-1,-3,-1,1,-7,-2
16:23:51.617242,-1,0,-1,-3,3,3,-2,1
16:23:51.624237,-1,0,-1,-1,-4,5,6,3
16:23:51.639228,0,1,-3,-2,-2,-1,9,3
16:23:51.646224,-2,-1,-1,-1,-1,-3,-3,-1
16:23:51.662213,-1,0,2,0,-4,-2,2,2
16:23:51.662213,-7,-3,-1,-2,-2,-3,-1,-4
16:23:51.677202,3,0,-2,0,-3,-2,-2,1
16:23:51.684201,1,-2,-2,3,-3,-1,-1,-3
16:23:51.699188,-1,-4,-2,-4,-1,0,-3,1
16:23:51.707186,-3,-1,-1,-3,-2,-2,1,1
16:23:51.722174,-3,-2,1,-2,-2,-3,1,1
16:23:51.722174,-1,1,-2,-1,0,-1,-1,-1
16:23:51.737171,3,-2,0,4,5,1,-12,1
16:23:51.744164,2,-1,0,0,-3,-1,-1,-4
16:23:51.767146,3,1,0,0,-1,-1,10,11
16:23:51.767146,-4,-2,-3,-1,2,0,-2,-1
16:23:51.782138,-3,-2,1,-1,-3,-1,0,-5
16:23:51.782138,-1,-1,-2,0,3,-1,2,0
16:23:51.804124,0,0,-5,-2,-3,-4,0,2
16:23:51.805123,1,0,0,0,-1,1,-6,-5
16:23:51.819118,-4,0,1,-4,-1,-1,-1,0
16:23:51.827112,-1,0,0,1,-4,-4,5,0
16:23:51.842106,2,0,-2,0,2,-6,-20,-1
16:23:51.849096,-1,2,1,1,0,-1,8,1
16:23:51.857091,-1,-5,-1,-1,-3,3,4,-2
16:23:51.864090,-1,-2,0,1,-2,-2,-4,-4
16:23:51.879080,-2,-3,-3,-4,-3,-4,-5,-4
16:23:51.887076,0,1,-1,-1,-2,10,6,0
16:23:51.902064,-2,-2,-2,1,0,0,2,-1
16:23:51.909060,-3,2,-1,-4,-2,-3,2,0
16:23:51.917057,1,-3,0,2,-1,-5,6,1
16:23:51.924052,-1,-1,1,0,0,0,-3,-2
16:23:51.939043,-1,-1,0,-2,-3,-3,4,3
16:23:51.947036,-1,-2,-3,-3,-1,0,-2,0
16:23:51.962029,-1,-2,0,-4,-5,-3,2,-3
16:23:51.969025,2,-1,2,1,0,-4,-6,-5
16:23:51.984016,-2,1,-1,-1,-5,-3,-1,-1
16:23:51.985015,0,-3,-1,-2,-1,-1,-2,2
16:23:51.999006,1,0,-1,-1,1,-1,-2,0
16:23:52.007001,0,2,-1,0,-2,1,-4,-1
16:23:52.021992,-1,-2,-1,-1,0,0,-4,2
16:23:52.028988,-1,-2,-3,-3,-2,3,1,-1
16:23:52.043976,-1,2,-1,0,-1,-2,0,0
16:23:52.044976,-3,-1,1,4,-1,1,1,-1
16:23:52.058968,-3,-2,2,0,1,0,1,0
16:23:52.073957,-4,1,-1,-2,0,-3,-3,-1
16:23:52.081955,0,-1,-1,-1,-1,2,-1,2
16:23:52.088948,0,-1,1,-2,-3,-3,1,1
16:23:52.096946,-2,-1,-2,-5,1,5,3,-3
16:23:52.103941,2,0,3,1,4,2,-3,0
16:23:52.119930,-1,-2,0,-1,-2,0,6,-2
16:23:52.126928,1,0,-1,-2,-1,1,11,6
16:23:52.141919,-2,-1,-3,-1,-3,-6,-1,2
16:23:52.148912,-1,1,-1,-1,-4,0,-2,-1
16:23:52.156907,-3,2,-3,0,1,-4,0,0
16:23:52.163902,-4,-3,-3,-2,0,4,-2,2
16:23:52.178894,1,-3,-5,0,-5,-6,0,2
16:23:52.186891,-3,-4,1,2,-1,-8,-3,3
16:23:52.201882,-2,-2,-1,-1,-1,3,5,1
16:23:52.208875,1,0,1,-1,-4,0,-1,1
16:23:52.223865,-2,-2,-2,-4,-2,-1,-5,-7
16:23:52.224865,1,1,-1,-6,-4,1,1,4
16:23:52.239859,-1,-1,3,1,-2,-1,-5,-6
16:23:52.246854,-5,-1,-2,-3,0,-3,2,-3
16:23:52.261845,-2,-2,-3,-2,-3,-6,-5,-2
16:23:52.268838,-2,-5,-1,-2,1,0,0,0
16:23:52.283831,-3,2,0,1,-2,-3,-2,1
16:23:52.284828,-1,-3,1,0,0,0,3,-1
16:23:52.299819,-3,-2,-2,-3,-4,-7,-3,-6
16:23:52.306817,-1,-4,1,1,-2,-3,4,-2
16:23:52.321808,1,4,0,-1,-1,0,-5,0
16:23:52.328801,-2,-2,1,0,0,-3,-2,0
16:23:52.343792,2,-1,0,-1,3,0,3,3
16:23:52.344794,0,-2,-1,2,-1,-2,-3,-3
16:23:52.359785,-1,-4,0,-1,-2,0,-2,-1
16:23:52.366777,-3,-3,-1,-5,-4,0,1,-4
16:23:52.381768,0,-3,-2,-1,-3,-1,-4,-3
16:23:52.388768,-3,-1,-1,0,1,2,-5,-2
16:23:52.404754,0,-2,-2,0,-4,0,12,-1
16:23:52.404754,-3,-2,0,-1,1,0,0,-1
16:23:52.419747,-3,1,0,2,-1,1,-7,-4
16:23:52.426743,0,-1,-1,0,-2,-1,0,0
16:23:52.441731,0,0,-1,0,-1,0,1,3
16:23:52.449732,0,-2,2,0,3,2,0,2
16:23:52.463718,-2,0,2,-3,-1,0,2,1
16:23:52.464717,-1,-2,-3,-1,0,-2,-5,-4
16:23:52.479711,-2,-2,-1,-3,1,2,-3,1
16:23:52.486707,-1,-1,-1,-3,-3,-2,0,-1
16:23:52.516689,2,2,0,-1,0,3,-9,1
16:23:52.517687,0,0,1,-3,-1,-1,3,0
16:23:52.523680,0,-3,2,-1,0,-5,4,1
16:23:52.524683,-3,-2,-1,-1,-1,-2,-8,-5
16:23:52.539674,2,0,0,-2,1,0,0,2
16:23:52.546670,-2,-1,-2,-3,1,1,-5,0
