timestamp,emg1,emg2,emg3,emg4,emg5,emg6,emg7,emg8
18:55:15.909590,0,-2,1,-3,-2,1,-1,0
18:55:15.909590,1,-1,-1,2,-1,1,-1,-1
18:55:15.921582,-2,-2,-3,-4,-2,-2,-1,1
18:55:15.928577,-3,0,-2,-4,-1,-2,-3,-1
18:55:15.942570,-2,-4,-1,1,-3,2,2,2
18:55:15.947568,1,1,0,1,1,-1,-2,-2
18:55:15.965553,0,1,-1,2,-4,-2,0,-1
18:55:15.965553,1,0,-4,0,2,0,-3,0
18:55:15.980545,-3,-1,-4,0,-3,2,0,-1
18:55:15.987539,-3,-3,-2,0,2,-1,0,-1
18:55:16.002531,-1,-1,0,-1,3,-3,-1,-2
18:55:16.003530,1,1,-3,0,-4,-2,-3,-2
18:55:16.024519,-2,0,-3,-1,0,0,-1,-2
18:55:16.025515,-1,1,-1,-1,-1,-3,-4,0
18:55:16.047503,-3,-1,-2,-2,-3,-4,-4,-2
18:55:16.048503,-1,0,0,0,0,3,-1,-2
18:55:16.062494,-1,-1,-1,0,2,1,-3,-1
18:55:16.063493,0,-1,1,-1,-3,-2,0,-2
18:55:16.084483,-2,-1,-2,-2,-1,-1,-1,1
18:55:16.085480,-2,-2,-3,0,-1,0,1,-2
18:55:16.107530,2,-4,-2,-1,0,2,0,-1
18:55:16.115463,0,0,-1,1,3,0,0,-1
18:55:16.123455,0,-3,3,0,0,-1,-1,-3
18:55:16.123455,0,-2,2,-2,-4,-1,0,-3
18:55:16.145445,1,-1,2,-2,-2,-1,-1,1
18:55:16.146444,-3,-2,-2,-1,-3,-1,3,0
18:55:16.168430,-1,-1,0,1,3,1,-1,1
18:55:16.168430,-2,-1,1,-2,-1,3,-1,0
18:55:16.182420,1,-3,-3,-3,-1,0,-4,0
18:55:16.183420,0,-3,1,1,1,-3,-1,2
18:55:16.205408,-2,-4,-1,2,0,0,-3,-1
18:55:16.206404,-1,-2,-1,0,0,-1,0,-2
18:55:16.228391,-2,1,-1,1,-2,-5,-2,-2
18:55:16.228391,-2,0,0,0,-6,0,1,-1
18:55:16.242384,-1,-3,-2,0,-2,-1,-1,0
18:55:16.243381,-1,-2,-2,-1,2,2,-4,-1
18:55:16.265370,0,0,0,-1,0,0,0,3
18:55:16.266367,-2,1,-1,2,-1,0,-2,-2
18:55:16.288355,-1,-1,1,1,-1,0,0,1
18:55:16.288355,2,3,2,1,-1,-4,0,0
18:55:16.303343,-2,-1,0,0,-2,0,1,-2
18:55:16.310342,1,-2,0,-4,-3,-3,1,-1
18:55:16.325333,0,1,-1,-1,0,0,-2,0
18:55:16.326331,-6,-3,-4,-2,-2,0,0,-1
18:55:16.348316,-2,-2,-3,-1,-2,-1,0,1
18:55:16.348316,2,0,1,0,0,-2,-3,-1
18:55:16.363306,1,-1,-2,1,-1,0,-4,-1
18:55:16.370302,0,-1,-1,-3,-1,1,-1,-1
18:55:16.385296,-3,2,0,-3,-3,0,-3,-3
18:55:16.386294,1,-4,2,1,0,0,1,2
18:55:16.408280,-1,0,-2,-1,-2,-2,0,-2
18:55:16.408280,-2,-3,0,-1,1,2,-3,-3
18:55:16.423270,1,-1,-1,-3,-1,1,0,-2
18:55:16.430268,1,0,-2,0,0,1,-1,-2
18:55:16.445258,-2,-1,-1,-5,-4,-5,-3,-3
18:55:16.446257,-1,-2,0,-1,-1,0,0,-1
18:55:16.468242,-3,-1,-2,-2,0,-1,-3,0
18:55:16.468242,1,-1,0,0,-1,-3,-1,3
18:55:16.483232,-3,-3,-1,-2,-2,0,1,-1
18:55:16.490231,4,-3,2,-2,-3,-1,-2,1
18:55:16.505222,-1,-4,1,0,-1,-1,0,-1
18:55:16.506218,2,3,0,0,0,2,-3,-1
18:55:16.528205,2,3,6,3,5,2,1,1
18:55:16.528205,-2,-3,-2,0,-1,-1,-4,-3
18:55:16.543198,-2,-3,-1,1,0,-3,-3,1
18:55:16.550190,0,-3,2,1,0,-1,-2,-2
18:55:16.565184,0,1,1,0,0,-1,-2,-1
18:55:16.566184,-3,0,0,1,-1,-1,-1,-1
18:55:16.588167,-2,-2,0,2,5,-1,-2,-2
18:55:16.588167,-1,-3,-3,-3,-2,-4,0,0
18:55:16.603162,3,-3,1,1,-1,-1,0,-2
18:55:16.610155,0,-1,1,0,-2,-5,0,-1
18:55:16.625147,-2,-2,-2,0,0,1,3,0
18:55:16.626146,0,-2,-2,-1,-1,-1,-1,-3
18:55:16.648134,-1,-1,-4,-1,2,3,1,-3
18:55:16.649132,-2,-3,-1,-3,2,-3,1,1
18:55:16.663124,-1,-2,1,-1,-3,1,-1,0
18:55:16.671116,-2,-3,-2,0,1,-3,-1,-2
18:55:16.685110,0,-1,-1,-1,0,2,-4,-5
18:55:16.686107,-2,-1,-1,0,0,0,-1,0
18:55:16.715091,-1,1,-2,-1,1,0,-1,4
18:55:16.716091,-4,-3,-2,-1,0,-1,-1,-2
18:55:16.723087,2,-3,-2,-2,-1,-2,-5,-2
18:55:16.731082,-1,0,0,-1,-2,-3,0,0
18:55:16.745070,1,0,-3,0,-1,1,-4,-2
18:55:16.746070,-1,1,0,0,3,1,0,-1
18:55:16.768058,-3,0,-2,2,-1,-4,1,1
18:55:16.768058,-3,-2,-1,2,1,1,-2,0
18:55:16.783049,0,-1,0,-3,-2,-3,0,-1
18:55:16.790043,0,-2,-1,0,0,-1,1,1
18:55:16.805036,-4,-2,0,-2,-3,-1,1,1
18:55:16.806035,0,0,-3,-3,-3,2,0,-1
18:55:16.828018,-1,-1,-2,-3,-1,-2,-2,-3
18:55:16.829018,-3,-1,-2,0,-2,-1,0,-3
18:55:16.843012,-2,2,-1,-4,0,-1,-3,-2
18:55:16.851006,2,-1,1,-1,-3,-1,-1,1
18:55:16.864996,-1,2,1,5,-3,-1,0,2
18:55:16.865997,2,-1,-2,0,-1,-1,-1,1
18:55:16.887985,-1,-1,2,-4,-5,-3,0,-3
18:55:16.888980,-3,0,-2,-3,-1,-1,-3,-3
18:55:16.902975,-1,-1,-1,1,0,-3,0,-3
18:55:16.910967,-1,-5,2,0,0,1,-1,-1
18:55:16.924959,0,-1,0,0,0,-2,-3,-4
18:55:16.925962,0,-1,0,-1,-5,-3,0,0
18:55:16.947947,-3,0,-2,0,-1,-1,-2,-2
18:55:16.948944,0,-2,1,-1,-2,-1,1,0
18:55:16.970931,-1,-1,-1,-1,1,-1,-2,0
18:55:16.970931,0,-1,0,1,-2,1,-1,-4
18:55:16.984920,-3,-2,0,-4,2,1,0,-2
18:55:16.985920,0,0,0,-1,-3,-1,-2,-1
18:55:17.007910,-2,-2,-1,-1,-2,-1,0,-2
18:55:17.008906,1,-3,0,-1,-4,-2,-1,2
18:55:17.029893,1,-2,1,1,0,0,1,2
18:55:17.030895,-2,-1,2,1,-1,-2,-1,-4
18:55:17.045883,2,-2,-2,3,4,-1,1,0
18:55:17.045883,0,-1,-1,-2,0,-2,-1,-1
18:55:17.067873,-1,-1,-1,0,-3,-1,2,-4
18:55:17.068872,1,-3,-3,-2,-4,0,0,0
18:55:17.090862,-3,2,0,0,0,-2,-2,-1
18:55:17.090862,-1,0,-2,2,-1,0,-1,0
18:55:17.105849,-1,-1,0,-1,-2,-1,-1,-2
18:55:17.105849,1,-2,-2,3,3,3,1,2
18:55:17.127835,2,1,1,0,1,1,0,0
18:55:17.128832,-1,-2,-2,1,-2,-3,0,1
18:55:17.150819,-3,-2,-1,-1,-5,1,-4,-2
18:55:17.150819,-1,-2,-4,0,-4,-1,-1,-3
18:55:17.165809,-2,-1,0,-1,-2,1,0,-2
18:55:17.165809,-1,-2,-3,-2,-3,-2,-2,-2
18:55:17.187798,-1,1,-1,1,5,-3,-3,3
18:55:17.188797,0,0,2,-2,-2,2,1,1
18:55:17.209784,0,0,-2,0,-4,-2,-1,-2
18:55:17.210781,-1,-2,3,0,0,-4,-3,1
18:55:17.225772,3,-2,0,2,2,0,1,-1
18:55:17.225772,-3,-3,0,-2,-2,0,-2,-1
18:55:17.247761,-1,0,-2,1,-3,0,0,0
18:55:17.248760,4,3,1,-1,2,-2,-1,-2
18:55:17.270747,-2,-1,-2,-1,-3,1,-1,-1
18:55:17.270747,0,-3,1,-3,-2,1,0,-2
18:55:17.285737,-1,-2,-3,-1,-1,-1,-1,0
18:55:17.292733,1,-2,0,2,0,-1,1,0
18:55:17.307724,-2,-1,0,-2,0,-1,-2,-3
18:55:17.308720,2,0,1,1,5,4,-1,3
18:55:17.330707,0,-2,0,2,4,0,-3,-3
18:55:17.331708,-2,-1,-4,-1,1,-1,-2,0
18:55:17.345697,-1,0,-1,-1,-3,-1,-1,0
18:55:17.352694,1,-2,1,-1,1,1,0,-1
18:55:17.375679,-1,1,2,-1,0,-1,-1,1
18:55:17.375679,-1,-2,1,0,-2,-3,-1,-2
18:55:17.390671,2,-1,2,0,0,0,-1,1
18:55:17.390671,-1,1,-3,-3,-7,-5,-1,-2
18:55:17.405663,2,-2,1,0,0,1,1,-1
18:55:17.412657,0,-3,-2,-1,-3,-2,-1,-3
18:55:17.427649,-3,-2,-3,1,1,-1,0,-1
18:55:17.428646,-2,0,-2,-2,-5,0,0,-3
18:55:17.450633,3,0,1,2,-3,0,0,1
18:55:17.450633,-1,-2,1,-1,0,-1,-1,-2
18:55:17.465626,1,1,0,1,3,2,0,0
18:55:17.473618,-2,1,0,2,-4,0,1,-2
18:55:17.487612,1,-1,-4,-1,-5,0,2,-1
18:55:17.488609,0,-1,-1,-3,1,0,-2,0
18:55:17.510599,-1,-1,1,3,0,-5,-1,-3
18:55:17.511594,-2,-1,-1,1,0,2,-3,0
18:55:17.525589,-1,1,1,0,-2,-4,-2,-1
18:55:17.532582,-1,-2,0,-2,-2,0,3,0
18:55:17.547574,1,2,3,0,0,-1,-4,-1
18:55:17.548573,0,1,0,3,3,-3,-1,2
18:55:17.570557,-1,-1,-4,-2,-3,0,0,-3
18:55:17.570557,2,0,4,-1,0,3,0,-1
18:55:17.592547,-1,-2,-3,-1,-3,0,-2,-1
18:55:17.593544,0,0,0,0,-5,0,-2,-1
18:55:17.607534,-1,2,-1,1,-1,-3,-4,-1
18:55:17.608537,1,0,2,3,0,-1,-2,-1
18:55:17.630523,-2,0,-3,-1,-3,0,0,2
18:55:17.631523,0,0,-1,-4,-3,-4,-2,-2
18:55:17.652508,-2,-4,-1,-2,0,0,-1,-2
18:55:17.653507,1,3,-2,3,3,-1,0,2
18:55:17.667497,1,2,0,2,-1,-1,-1,0
18:55:17.668497,0,-3,-1,-1,-2,-1,-2,0
18:55:17.690486,-4,2,0,1,-3,-2,-1,-1
18:55:17.691486,-2,0,0,0,4,2,-4,-2
18:55:17.713469,-1,-4,-2,-5,-5,1,-2,-3
18:55:17.713469,0,0,-1,0,1,-2,-5,1
18:55:17.727461,-5,-1,-2,-3,-5,0,-2,-3
18:55:17.728460,-2,-1,0,-2,-2,-3,0,-2
18:55:17.750449,0,-2,-3,1,2,-2,-1,1
18:55:17.751446,0,2,-1,-1,3,-2,-3,-1
18:55:17.772432,-1,-1,-4,1,-3,0,2,-1
18:55:17.773433,-1,-1,-1,-1,-1,1,0,2
18:55:17.788423,0,-1,-2,-1,-3,1,-3,-2
18:55:17.788423,2,0,-1,0,3,1,-3,2
18:55:17.818406,-1,2,1,0,-1,-3,-4,-2
18:55:17.818406,-1,1,-1,-2,0,0,-2,0
18:55:17.833395,0,1,0,1,-1,-1,-2,2
18:55:17.833395,1,-1,-1,-1,0,-1,0,-4
18:55:17.848388,-1,-1,0,-3,-4,-1,0,-2
18:55:17.848388,-3,-3,0,-3,-3,-3,-1,-1
18:55:17.870375,-1,-1,-1,-2,0,0,-1,-2
18:55:17.871377,1,0,0,3,-1,-2,1,3
18:55:17.893359,-1,1,-3,-2,-1,-1,0,-2
18:55:17.893359,1,-2,-4,-4,0,3,0,-1
18:55:17.908350,-1,1,-3,-1,-5,-1,-1,-1
18:55:17.908350,-1,0,-1,1,-2,-1,-2,2
18:55:17.930338,-4,-1,-3,0,0,-2,1,-2
18:55:17.931334,-1,-2,-2,-3,-7,-1,-1,-3
18:55:17.953320,-1,-2,0,0,5,0,1,2
18:55:17.953320,0,4,0,1,2,2,2,-1
18:55:17.968313,0,-1,0,-2,-5,-1,2,1
18:55:17.968313,2,3,2,1,1,1,-3,-1
18:55:17.990301,-2,0,0,0,-1,1,1,-1
18:55:17.991300,2,1,2,1,0,1,-2,0
18:55:18.013283,1,-2,0,-3,-1,2,-4,-3
18:55:18.013283,-1,-2,-2,-4,1,-2,1,-3
18:55:18.028274,-2,0,0,-3,-4,0,0,2
18:55:18.029274,1,3,3,1,5,3,0,-2
18:55:18.050263,1,-2,4,0,-1,1,-4,1
18:55:18.051259,0,0,0,-1,-1,1,0,1
18:55:18.073246,-3,-4,-1,3,0,0,-3,-6
18:55:18.073246,-1,-2,-3,-3,-1,-2,2,-1
18:55:18.088236,0,-1,0,1,-2,-1,0,-1
18:55:18.088236,0,0,-2,-2,-3,0,-1,-2
18:55:18.110226,-1,-1,0,-4,3,-1,-1,-4
18:55:18.111225,0,0,-1,0,0,0,1,0
18:55:18.133209,-1,-2,-2,3,1,1,-1,1
18:55:18.134210,-1,0,-2,-1,-1,1,-2,-2
18:55:18.148199,0,0,0,-1,-2,-3,-1,-2
18:55:18.148199,-1,2,-2,0,0,-4,-2,2
18:55:18.170189,1,-1,-2,-1,1,0,-2,1
18:55:18.171186,0,-2,-2,-1,-2,0,-1,-1
18:55:18.193180,-1,1,0,-2,-2,0,-1,1
18:55:18.194174,-1,0,-1,4,-4,-6,-1,-1
18:55:18.208163,-2,2,-1,0,-2,0,0,-2
18:55:18.208163,0,0,0,-1,0,0,1,2
18:55:18.230150,-1,-4,0,-3,2,1,1,-2
18:55:18.231151,4,-2,-2,2,-3,0,1,2
18:55:18.253138,-2,-2,0,1,-5,-1,-3,-2
18:55:18.253138,0,2,0,1,2,0,0,1
18:55:18.268128,1,-3,-3,-3,-6,1,-2,-1
18:55:18.268128,0,-3,-4,-1,-4,-1,-2,-3
18:55:18.290114,1,-6,-2,-3,-1,0,-2,0
18:55:18.291111,0,-5,1,1,-2,-2,0,-3
18:55:18.313100,0,1,-2,-2,2,0,-2,0
18:55:18.314097,0,-2,-3,-3,0,1,0,-1
18:55:18.328091,-1,0,-2,0,3,-1,-3,1
18:55:18.329091,0,-5,-5,-1,-3,1,-4,-3
18:55:18.350075,-1,0,-3,1,1,-2,-2,0
18:55:18.351073,1,0,0,-2,-3,0,-3,1
18:55:18.373061,1,-2,-1,-2,-2,-3,1,-2
18:55:18.373061,-2,0,-1,-2,-2,-2,0,0
18:55:18.387078,-1,-1,0,1,-1,3,1,2
18:55:18.388052,-1,1,-1,2,-2,1,-3,0
18:55:18.410037,-3,-2,-6,-1,-5,0,-4,-2
18:55:18.411038,-1,0,-1,0,1,-2,-2,-1
18:55:18.433023,0,-2,0,0,-3,-2,-1,-1
18:55:18.433023,-1,-3,-2,0,-3,-1,0,-3
18:55:18.448014,2,0,-2,3,-1,0,-2,1
18:55:18.448014,0,-2,0,0,1,-3,0,0
18:55:18.470000,-1,-3,-1,-2,0,1,-2,2
18:55:18.470998,-3,-2,-3,-1,0,1,-1,-1
18:55:18.492985,2,2,1,2,2,-2,-1,3
18:55:18.492985,0,-1,-1,2,1,1,-4,2
18:55:18.506980,-5,-1,-4,-5,-6,-3,-3,-4
18:55:18.507977,-2,-1,-1,-2,-4,-2,-1,-3
18:55:18.529962,0,-1,-5,-3,-1,-6,-6,-6
18:55:18.530963,-1,0,-1,1,2,-3,1,1
18:55:18.552949,9,-3,-2,-3,-5,-2,1,6
18:55:18.552949,-1,-3,-2,-3,0,1,-1,-3
18:55:18.567940,2,0,-3,-4,-2,-4,-4,-2
18:55:18.574956,3,3,-1,-1,-3,-1,-1,1
18:55:18.589925,-20,-4,1,3,3,1,0,-6
18:55:18.590924,-14,5,2,1,5,5,11,10
18:55:18.612912,-11,-3,1,1,0,2,2,-3
18:55:18.612912,3,-1,-3,-4,-7,-7,-3,-2
18:55:18.634897,3,2,-1,2,0,3,4,2
18:55:18.635898,-3,-3,0,-2,-2,1,-3,-2
18:55:18.649887,-5,0,-1,-3,-2,1,1,-1
18:55:18.650889,-1,-4,-1,-2,-2,-3,0,1
18:55:18.672875,-3,0,0,-3,-1,-1,-1,1
18:55:18.672875,0,-1,0,-5,4,-1,2,-2
18:55:18.694860,1,-2,-1,-1,1,0,-1,2
18:55:18.695860,3,3,3,-1,2,6,1,0
18:55:18.709852,2,-2,-1,-1,-2,2,1,4
18:55:18.710852,-5,-3,-2,-3,-3,-1,0,1
18:55:18.732838,-1,4,-2,-1,2,-2,3,-1
18:55:18.739835,2,-1,0,-3,-6,0,3,5
18:55:18.754832,-1,1,0,-2,4,1,-1,-1
18:55:18.755824,2,2,1,-1,2,2,1,0
18:55:18.769833,11,5,0,-1,0,-2,0,-1
18:55:18.770815,5,-3,-4,0,-1,-1,0,-4
18:55:18.792801,0,-4,-2,-1,-1,0,-2,-1
18:55:18.792801,-2,2,2,2,3,0,-2,3
18:55:18.814823,3,-1,2,-2,1,2,3,1
18:55:18.815787,5,8,2,-3,-1,-1,-3,-1
18:55:18.829821,-6,-3,-4,-1,-1,-3,-2,-3
18:55:18.830776,-4,-1,-3,-4,-3,-1,1,-3
18:55:18.852763,3,4,-2,-3,1,-2,1,-1
18:55:18.852763,-3,1,0,2,0,-1,2,-2
18:55:18.874756,-2,-1,0,0,-3,0,-4,-1
18:55:18.875748,-3,-3,-3,0,1,1,-4,-1
18:55:18.889750,-5,-4,0,-1,-1,3,0,-3
18:55:18.890738,-2,0,-2,-4,-1,0,0,0
18:55:18.919724,0,-2,0,-2,1,-3,-1,-3
18:55:18.920720,-2,0,-1,3,4,0,0,2
18:55:18.934715,-4,-3,1,1,0,0,-2,0
18:55:18.935712,2,-2,-4,-3,2,-1,-6,0
18:55:18.949705,5,-1,1,3,0,2,2,0
18:55:18.950703,-5,-7,-2,-2,-2,1,-3,-3
18:55:18.972689,-3,-3,-1,-3,-4,-2,-3,-3
18:55:18.972689,-3,1,1,5,1,2,-1,2
18:55:18.994675,-5,-4,-4,-4,-1,-2,-2,-8
18:55:18.995675,-1,-3,2,0,-2,0,-1,-3
18:55:19.009667,1,-1,1,1,-2,-2,2,-1
18:55:19.010664,-1,0,-5,-7,-3,-1,0,-2
18:55:19.032652,-4,-4,3,5,5,-1,0,-7
18:55:19.033650,-3,-4,-3,-23,-6,0,-3,-1
18:55:19.054640,1,3,3,-2,-4,3,4,0
18:55:19.055636,0,-4,-3,1,-4,-1,0,-1
18:55:19.069633,-4,-2,1,1,-3,-5,-4,-1
18:55:19.070627,-3,-3,-3,-9,-4,-1,-1,2
18:55:19.092615,-1,-1,1,1,-3,-5,-1,-3
18:55:19.093613,-1,0,-5,4,3,-1,0,-4
18:55:19.115599,-3,-1,-5,11,4,-4,-3,-3
18:55:19.115599,1,-2,-6,-2,4,1,-2,-2
18:55:19.129593,2,0,5,11,25,2,-2,-4
18:55:19.130590,5,2,-3,-1,9,4,2,2
18:55:19.152576,7,3,-1,8,6,1,-1,1
18:55:19.153575,1,0,-1,-11,1,4,4,2
18:55:19.175563,-3,-1,4,17,8,-2,-4,-3
18:55:19.175563,-1,-3,0,-12,66,14,-1,0
18:55:19.190552,6,6,-7,12,-7,-2,2,6
18:55:19.190552,-4,-4,4,8,45,22,0,-3
18:55:19.212540,7,12,-3,-5,-93,-5,2,4
18:55:19.213540,0,-4,0,-6,127,-2,-2,0
18:55:19.235525,17,13,15,101,-1,-32,6,9
18:55:19.235525,-10,-11,-3,63,127,-27,-11,-10
18:55:19.257512,15,27,41,-128,-128,-128,6,2
18:55:19.258512,-31,-50,-55,127,34,29,-27,-29
18:55:19.272502,-25,-57,-103,-57,127,127,-7,-9
18:55:19.273503,28,28,98,127,-69,-60,13,14
18:55:19.295488,-22,-60,-35,127,127,127,-18,0
18:55:19.295488,-23,-80,-38,-112,127,-85,-18,0
18:55:19.310479,46,113,50,-114,-128,-128,32,12
18:55:19.310479,-103,-128,-109,-67,59,-50,-69,-69
18:55:19.332464,73,98,27,127,-128,-34,46,29
18:55:19.333465,-103,-118,-32,27,6,-19,-72,-76
18:55:19.355451,25,59,52,-116,45,92,12,19
18:55:19.355451,3,5,29,9,31,22,5,4
18:55:19.370443,26,73,4,127,127,127,19,0
18:55:19.370443,-44,-105,-122,-128,-128,-128,-42,-45
18:55:19.392427,-45,-94,9,116,-128,107,-11,-17
18:55:19.393428,37,97,44,-16,-85,25,20,27
18:55:19.415415,21,-21,1,-82,55,127,9,18
18:55:19.415415,29,52,63,122,127,24,13,18
18:55:19.430404,9,20,29,-68,127,16,9,8
18:55:19.430404,-92,-128,-128,-21,-128,-82,-37,-49
18:55:19.452390,33,49,62,91,127,127,5,14
18:55:19.453391,7,-74,-88,-128,-128,-128,-59,-4
18:55:19.482371,-48,-82,-4,-37,-128,127,5,-26
18:55:19.483372,28,70,42,127,-9,54,3,20
18:55:19.489373,44,6,-128,-128,-128,-128,12,28
18:55:19.490367,-24,27,63,112,46,127,-9,-22
18:55:19.512355,95,127,127,127,127,74,11,21
18:55:19.513353,-1,8,-67,-113,127,127,21,18
18:55:19.535340,26,-39,-90,-128,38,-51,-6,11
18:55:19.535340,2,-85,-128,-128,-128,-128,-28,-3
18:55:19.550331,4,77,80,-128,-128,-128,-22,-4
18:55:19.557331,-26,-54,-39,127,127,-61,-6,-17
18:55:19.572328,60,127,127,-128,-128,-128,-10,22
18:55:19.573321,-99,-128,-128,-3,-34,53,-5,-36
18:55:19.595303,1,54,59,76,48,-13,-14,-6
18:55:19.596302,-71,-128,-128,-104,115,81,-21,-21
18:55:19.618289,43,127,127,49,-128,-128,-1,12
18:55:19.618289,-1,-35,-7,1,127,-81,5,8
18:55:19.640277,-97,-128,-128,34,127,127,35,-37
18:55:19.641275,40,105,80,127,-128,-128,-7,14
18:55:19.655268,-45,-125,-111,71,127,127,-2,-25
18:55:19.656267,10,66,37,-128,-51,76,-1,6
18:55:19.670259,41,72,59,127,127,-15,12,15
18:55:19.678254,-20,-96,-98,26,127,25,10,2
18:55:19.693244,-2,-62,-98,-128,-128,-128,-9,4
18:55:19.693244,35,64,85,127,127,93,12,16
18:55:19.715231,13,76,61,-75,85,-52,0,2
18:55:19.716230,-9,-37,-32,100,4,-114,0,-1
18:55:19.730219,-34,-91,-86,-48,-40,40,-6,-12
18:55:19.738216,-3,-33,-37,50,127,127,19,4
18:55:19.753207,3,26,10,-128,-128,-128,-9,0
18:55:19.760203,-6,18,33,-101,-128,-128,-2,-4
18:55:19.775193,6,5,3,-11,127,-2,7,6
18:55:19.776193,-77,-128,-128,127,127,127,11,-22
18:55:19.790184,24,62,68,-9,-128,-85,2,12
18:55:19.798179,9,8,15,127,-128,69,5,2
18:55:19.813167,-2,0,2,51,77,65,2,-2
18:55:19.813167,-22,-84,-107,-128,-42,8,-13,-7
18:55:19.835156,7,35,48,-128,127,127,4,2
18:55:19.836155,10,25,24,-128,-128,-128,-13,3
18:55:19.858139,-32,-63,-54,-128,-128,-10,-8,-11
18:55:19.858139,14,18,13,-78,-104,-118,5,11
18:55:19.873133,-15,-25,-25,-76,-105,-20,-10,-12
18:55:19.880125,-8,-21,-11,5,6,77,7,1
18:55:19.895117,17,25,22,-88,-128,-51,2,6
18:55:19.896116,1,10,11,-128,-34,42,0,-1
18:55:19.918105,-14,-24,-24,-4,-114,-111,-9,-7
18:55:19.918105,-5,-3,19,49,127,-104,-9,-5
18:55:19.933096,-4,-19,-14,9,-128,-85,-2,-6
18:55:19.934093,9,18,13,-37,-128,-123,-1,7
18:55:19.963077,-10,-21,-28,-18,89,22,-4,-7
18:55:19.963077,-13,-22,-31,-20,14,21,-6,-12
18:55:19.978065,3,2,-25,-120,-128,-128,-7,5
18:55:19.979067,-23,-40,-30,121,-33,-48,-8,-12
18:55:19.993056,12,24,2,17,-48,68,5,6
18:55:19.993056,7,25,23,-59,-128,7,-3,4
18:55:20.023040,2,-3,-10,-37,-128,-64,-5,2
18:55:20.024039,-2,-24,-21,-10,79,19,0,2
18:55:20.038030,-20,-5,33,74,-7,74,-15,-20
18:55:20.038030,-8,-54,-73,33,127,62,-4,-3
18:55:20.053019,-1,-41,-37,-128,-98,-128,-10,-3
18:55:20.053019,25,79,57,63,76,31,13,6
18:55:20.075004,-7,-8,15,23,127,58,-1,-1
18:55:20.076004,-53,-106,-40,127,127,127,6,-26
18:55:20.104989,41,82,67,127,-128,-128,-9,20
18:55:20.105988,-13,-28,-62,-128,-128,-128,-20,-4
18:55:20.112984,-13,-3,6,-22,20,-25,-11,-9
18:55:20.120979,-10,-16,-23,-58,-128,-92,-6,-6
18:55:20.134968,-5,-5,8,127,124,112,7,-9
18:55:20.135967,-1,-6,-12,-61,-30,-2,-4,-2
18:55:20.157956,0,-4,-2,-19,-10,-6,1,1
18:55:20.158955,-3,-2,-4,6,-10,-1,-1,-5
18:55:20.172947,-1,0,-2,-4,-2,1,-1,-2
18:55:20.180939,1,2,1,2,2,3,8,4
18:55:20.195929,-24,9,9,4,7,4,6,-19
18:55:20.195929,5,25,2,0,5,24,31,30
18:55:20.217919,-32,10,-13,-15,-11,-15,115,25
18:55:20.218915,-100,31,20,19,20,2,-51,-47
18:55:20.232910,-64,-74,-37,-26,-24,3,-128,85
18:55:20.239905,-80,-8,38,21,23,-6,127,-97
18:55:20.254893,12,-20,-3,5,12,6,-128,10
18:55:20.255893,47,74,40,31,26,37,127,71
18:55:20.277882,127,50,4,11,19,66,127,101
18:55:20.278878,56,-77,27,30,20,66,127,35
18:55:20.292872,-128,26,11,-2,-17,-80,127,-128
18:55:20.300865,-27,53,17,14,8,-1,95,-13
18:55:20.315855,-60,-19,-52,-128,-128,-128,-53,-9
18:55:20.316854,-30,-28,9,79,-128,-64,-43,-23
18:55:20.337842,-2,-104,14,127,127,70,-26,5
18:55:20.338844,24,47,-55,33,127,127,-15,3
18:55:20.352833,-128,-52,-9,-2,94,-13,93,-128
18:55:20.359828,-76,-26,-80,-128,-128,-128,37,-121
18:55:20.374841,-37,37,29,-47,127,-57,127,-126
18:55:20.375818,-74,-25,17,127,127,-65,127,-128
18:55:20.397805,127,15,-53,-128,-92,49,-128,127
18:55:20.397805,-38,24,75,17,-2,27,87,-43
18:55:20.412796,41,14,32,94,-74,73,-28,-15
18:55:20.419812,127,4,6,19,127,127,-91,127
18:55:20.435782,-128,-46,14,-98,-30,24,62,-105
18:55:20.435782,46,-11,0,17,127,61,-5,127
18:55:20.457770,-100,-22,15,87,-91,-99,-128,-128
18:55:20.458769,84,14,-9,-5,97,-22,127,-101
18:55:20.472761,74,52,4,-26,-128,-38,55,127
18:55:20.480756,-41,-15,15,19,-35,38,20,-20
18:55:20.495745,-18,-24,-14,-29,127,20,-128,-3
18:55:20.495745,24,10,42,127,39,27,42,75
18:55:20.517733,28,-11,29,115,127,84,34,-34
18:55:20.518729,-58,-19,-12,-1,-128,-112,-60,-36
18:55:20.532723,127,66,10,63,37,64,90,38
18:55:20.540715,63,17,2,-81,125,42,-75,28
18:55:20.555706,-34,-9,-14,10,-67,-29,26,-60
18:55:20.556709,-31,-17,-13,33,127,18,-9,-29
18:55:20.577696,-20,-3,13,-84,-110,8,-28,-51
18:55:20.578693,-25,6,-20,92,-128,-65,9,-30
18:55:20.592686,-18,10,-4,49,34,36,23,-5
18:55:20.600679,-65,-31,-10,-65,-67,-10,-128,-75
18:55:20.615669,18,-11,-29,59,72,-27,-43,-33
18:55:20.615669,-3,8,-6,-50,122,15,32,20
18:55:20.637659,-22,-19,-3,38,-30,-35,-25,-26
18:55:20.638654,-18,-19,-18,-5,127,-4,-20,-22
18:55:20.652646,-42,-23,-9,-128,-128,-21,-35,-33
18:55:20.660644,-1,9,-2,55,62,-21,-15,-36
18:55:20.675633,7,0,-7,-8,-128,-44,-85,50
18:55:20.675633,-28,-14,11,18,-20,2,94,-33
18:55:20.697621,-8,-3,-11,-16,55,6,-8,-21
18:55:20.698621,46,9,-6,-17,63,37,54,72
18:55:20.712612,-3,6,12,21,14,8,-13,7
18:55:20.720607,-2,-5,-23,-23,-38,-78,-28,-28
18:55:20.735595,0,2,-8,-63,-128,-5,8,-2
18:55:20.735595,-17,-12,0,17,109,12,0,-3
18:55:20.757584,0,3,1,18,-39,-4,-12,0
18:55:20.758583,-4,-10,-8,-45,-27,-5,-4,33
18:55:20.780570,8,5,4,50,-41,-6,-6,3
18:55:20.781566,-12,-8,-3,2,-18,-16,-18,-35
18:55:20.795558,-4,-6,-5,-21,-12,-19,8,8
18:55:20.802554,-3,11,9,-55,-128,-15,-4,-24
18:55:20.817546,11,-5,-6,43,-128,-26,15,16
18:55:20.818545,10,-6,-3,-50,-37,-15,-11,19
18:55:20.840533,-13,-5,-3,28,32,-3,-17,3
18:55:20.840533,20,16,3,-1,5,13,24,14
18:55:20.855524,-12,-4,-2,-3,-4,-20,-26,-27
18:55:20.856522,4,-5,-1,-36,-32,6,-58,7
18:55:20.877509,-4,-3,3,9,16,9,13,-5
18:55:20.878506,0,0,-1,-7,38,-9,0,-10
18:55:20.900495,-5,0,8,64,-34,8,-5,-9
18:55:20.901492,-2,3,2,9,51,1,-21,-7
18:55:20.915487,9,-1,-4,-6,-15,1,2,27
18:55:20.916486,4,2,1,3,-13,-1,-16,-3
18:55:20.938469,7,0,1,-10,-8,1,1,5
18:55:20.938469,-9,-8,-3,17,22,1,-22,-17
18:55:20.960458,-9,0,-2,0,-3,-1,2,-11
18:55:20.960458,9,0,-4,-37,-128,-4,-6,7
18:55:20.975449,-1,0,4,-31,-86,-10,6,4
18:55:20.976445,-1,-2,-3,7,14,-14,2,0
18:55:20.998432,1,-3,-4,-11,-88,-14,3,4
18:55:20.998432,-3,-7,-1,4,58,3,-10,-1
18:55:21.020421,9,4,-6,-1,-4,-9,-18,-17
18:55:21.021419,0,-6,2,2,-9,7,12,21
18:55:21.035412,20,7,1,0,-21,7,-10,13
18:55:21.042408,-3,1,2,10,-49,-9,-1,-3
18:55:21.058394,0,-3,0,-6,-26,10,-3,2
18:55:21.058394,-3,-4,-2,-40,-128,-24,-2,-1
18:55:21.080384,-4,-3,-1,27,78,10,-1,-1
18:55:21.081381,-3,-6,-4,0,4,5,-67,2
18:55:21.095375,15,5,3,-1,-16,-1,3,10
18:55:21.103369,-2,-4,-3,-4,-8,2,-1,-7
18:55:21.125356,-1,0,2,-31,-19,1,2,8
18:55:21.126352,-2,-3,-1,-3,26,4,12,-12
18:55:21.140345,-3,2,2,17,56,9,-1,-5
18:55:21.141343,3,0,0,-19,-8,6,2,3
18:55:21.155337,-1,2,1,4,3,-1,0,-2
18:55:21.163329,-1,0,-1,-3,-6,-3,1,-1
18:55:21.178320,-1,-3,-2,1,0,1,-1,-1
18:55:21.178320,2,0,-1,-3,-2,-2,-10,1
18:55:21.200310,-2,-1,-1,0,-2,-2,-3,-4
18:55:21.201306,-2,-3,0,0,0,5,4,4
18:55:21.215300,-2,-1,-1,0,2,-1,-13,6
18:55:21.223293,-3,-2,1,3,11,2,-1,-3
18:55:21.238284,-6,-3,-1,4,-25,-16,3,3
18:55:21.238284,10,3,-1,-28,-22,-3,5,12
18:55:21.260273,7,4,8,17,5,8,10,7
18:55:21.261272,-2,0,-1,-3,-2,1,1,2
18:55:21.275263,-2,-1,2,-3,1,-4,-5,-4
18:55:21.283255,4,2,-1,-4,-6,6,-17,-10
18:55:21.298246,-7,0,-2,0,-5,-5,1,-6
18:55:21.298246,-2,1,1,-12,-4,-6,-52,-8
18:55:21.320235,-1,-1,-3,25,-28,-4,5,-11
18:55:21.321232,-8,-7,-6,-24,-8,-3,-6,-12
18:55:21.335226,-7,-1,-2,1,-1,-4,0,-6
18:55:21.343218,0,1,0,-1,-6,-2,0,-1
18:55:21.358208,-5,-1,-1,-3,0,-4,1,-4
18:55:21.358208,6,6,7,3,9,11,-10,5
18:55:21.380198,0,0,-1,-3,-4,2,7,-2
18:55:21.381194,16,6,0,2,9,7,8,10
18:55:21.403181,3,-3,-6,-12,-19,-1,21,14
18:55:21.403181,0,3,3,21,37,9,-19,0
18:55:21.418171,3,-5,-3,-15,-21,-9,12,19
18:55:21.418171,-4,-2,0,-3,-1,-3,-2,-6
18:55:21.440161,-4,0,0,-3,47,-2,-12,-5
18:55:21.441161,2,0,-1,0,7,-2,0,0
18:55:21.455150,0,0,-1,-2,-16,-3,2,1
18:55:21.463147,-2,-1,1,0,5,0,-1,-5
18:55:21.478137,3,0,-2,-5,-2,3,3,23
18:55:21.478137,-5,-3,-3,-3,-5,-4,-9,-16
18:55:21.500124,-2,-1,-2,11,-19,-1,-4,-6
18:55:21.501123,-3,-3,-2,-2,5,-1,-1,-3
18:55:21.515111,3,4,1,-1,0,-4,-9,0
18:55:21.523110,1,-4,-1,-4,-2,3,-10,-3
18:55:21.538097,8,2,-1,0,-4,-2,-4,3
18:55:21.538097,-1,-1,0,-2,-4,-2,0,-3
18:55:21.561088,-2,0,-1,-6,-6,-2,-2,-3
18:55:21.561088,-7,-5,-1,-1,0,-1,-7,-10
18:55:21.575075,1,-1,-3,-3,-5,0,24,10
18:55:21.583069,5,4,2,1,-7,-7,3,12
18:55:21.598063,5,4,0,-3,6,-1,2,-2
18:55:21.599059,-1,0,-1,-3,-5,-4,-5,-1
18:55:21.620048,-5,-1,-3,-4,-4,0,-1,3
18:55:21.621049,-2,0,1,-3,-9,-6,-9,-4
18:55:21.636039,-6,-2,0,-2,2,-2,0,-4
18:55:21.643035,-1,1,1,-1,-1,2,9,16
18:55:21.658026,5,6,6,8,13,6,8,3
18:55:21.659022,1,3,3,3,1,-6,3,4
18:55:21.680009,-1,-4,-6,-3,-3,-4,-7,-9
18:55:21.681009,7,4,-1,-1,-1,4,8,11
18:55:21.702998,3,1,1,3,5,3,14,0
18:55:21.703995,0,-1,-2,1,0,1,10,-3
18:55:21.717989,1,2,1,-5,-4,-3,-2,-5
18:55:21.717989,5,3,4,3,2,3,6,16
18:55:21.739973,2,-2,-4,-4,-5,-1,4,-3
18:55:21.740974,2,1,1,-2,0,1,1,-1
18:55:21.762961,1,-1,0,-3,-4,1,2,2
18:55:21.763960,-2,-2,-1,1,2,-1,-4,-4
18:55:21.777952,-3,-1,1,-1,-3,-1,-1,4
18:55:21.778948,0,0,0,2,-1,-3,25,7
18:55:21.799938,-2,-4,-1,-2,1,4,7,1
18:55:21.800936,-5,-1,-2,-3,-2,-1,-1,-8
18:55:21.822924,-4,1,0,2,2,-1,3,-2
18:55:21.823922,-3,0,0,-3,0,2,-15,-12
18:55:21.837914,-3,-4,-1,0,-1,1,2,-1
18:55:21.838911,-2,-4,-1,-2,-3,-2,-5,-6
18:55:21.859898,7,-1,-1,2,2,4,5,8
18:55:21.860897,1,-4,0,-21,13,0,-4,5
18:55:21.882887,-5,-1,1,-10,-11,0,-13,-6
18:55:21.883883,1,-4,-4,-5,1,-3,8,0
18:55:21.897874,-4,1,1,-2,-14,-2,2,-7
18:55:21.898874,0,-1,0,15,-14,-6,13,9
18:55:21.920861,0,-4,-4,-47,-51,-1,6,2
18:55:21.920861,2,1,2,10,50,6,-4,1
18:55:21.942848,1,4,3,0,6,2,2,2
18:55:21.943847,-5,-5,-1,-5,-5,-1,-2,-2
18:55:21.965835,1,-3,-1,-4,-4,-4,-1,1
18:55:21.965835,-3,-2,-3,-1,-1,-4,-38,-7
18:55:21.980824,-5,-3,-1,1,0,-2,16,3
18:55:21.980824,-2,3,0,-2,0,4,0,2
18:55:22.002812,0,-3,-4,-6,-5,3,5,4
18:55:22.003808,0,-1,1,9,-2,-2,-7,-4
18:55:22.017803,3,0,-3,-2,1,2,8,15
18:55:22.025796,0,-1,0,-2,-1,-7,-16,-4
18:55:22.040785,0,-7,0,-2,1,3,-13,-7
18:55:22.040785,-1,0,-1,2,1,-2,2,3
18:55:22.077765,-1,0,0,2,-1,-2,-2,1
18:55:22.078762,-3,0,0,26,2,-2,10,0
18:55:22.078762,-7,-8,-1,-5,2,-6,-10,-11
18:55:22.085757,-1,-5,-3,-4,-5,0,3,17
18:55:22.100750,-4,-4,-1,-2,-4,-4,-2,-4
18:55:22.100750,-1,0,-2,-3,-2,0,-1,-3
18:55:22.122738,-1,2,3,13,11,-1,0,4
18:55:22.123737,0,1,2,1,0,-1,-5,-2
18:55:22.137728,-3,-4,-2,-6,-4,-3,-15,-2
18:55:22.145720,5,2,0,-2,0,3,0,4
18:55:22.160711,0,2,2,4,5,3,4,0
18:55:22.160711,-3,-1,3,-2,-1,-3,2,1
18:55:22.182701,-3,-3,-3,-3,-5,-6,4,-13
18:55:22.183699,-2,1,-3,-1,-4,-5,2,-6
18:55:22.197691,-1,1,-2,0,-2,-2,-1,2
18:55:22.205686,2,0,1,-1,-2,-1,2,-6
18:55:22.227672,-1,2,1,4,4,3,-7,-7
18:55:22.228669,-1,0,2,-3,-1,5,6,2
18:55:22.242663,-3,-5,-7,-3,-5,-1,18,-3
18:55:22.243663,-1,-1,-2,1,1,-2,2,2
18:55:22.257654,-5,-1,-2,1,-1,0,0,0
18:55:22.265649,3,0,2,-1,0,-1,6,10
18:55:22.280636,-5,-3,-2,0,-2,-5,-13,2
18:55:22.281636,-5,1,5,1,0,-7,-7,-11
18:55:22.302626,0,2,0,-1,-2,2,-10,-2
18:55:22.303625,-1,1,2,1,0,-5,-13,-4
18:55:22.317614,-10,-7,-4,-3,-1,-6,-9,-9
18:55:22.325609,-1,-3,-4,-4,-1,-4,8,17
18:55:22.340599,-5,-3,0,-1,-2,-3,-20,-4
18:55:22.340599,-3,-3,-3,-4,-1,1,4,-3
18:55:22.362586,3,6,3,6,5,1,2,3
18:55:22.363585,-5,-2,-5,-4,-3,-1,0,1
18:55:22.377576,-4,-1,0,-1,-2,-4,-14,-6
18:55:22.392568,-3,-2,-2,0,1,2,-9,-10
18:55:22.400563,2,5,-1,-6,-5,-4,-3,16
18:55:22.400563,5,5,1,3,4,3,5,-1
18:55:22.422551,-1,-5,-3,-3,-1,1,-7,-6
18:55:22.423551,-2,-3,-1,-5,-2,1,2,2
18:55:22.437540,1,1,1,3,5,-2,2,1
18:55:22.445534,-3,-3,-2,-1,-6,0,1,-1
18:55:22.460525,-1,-2,-2,-1,-5,-5,1,8
18:55:22.460525,-4,0,-1,-1,-3,-4,37,-5
18:55:22.482513,-7,-3,-1,-1,-3,0,-4,-7
18:55:22.483514,1,1,1,-1,3,0,8,2
18:55:22.498501,-5,-3,-1,1,0,-5,-1,8
18:55:22.505500,4,1,-2,0,2,1,3,-6
18:55:22.520491,-3,1,2,0,1,-1,-2,-9
18:55:22.520491,1,0,0,5,1,-3,0,0
18:55:22.542475,-4,-3,-2,-3,0,-2,-2,-1
18:55:22.543476,7,4,-2,-1,0,-4,0,3
18:55:22.558465,-4,-3,-2,-1,-1,-1,4,5
18:55:22.565463,-6,-3,-4,-5,-1,-4,17,-12
18:55:22.580454,5,3,-4,-3,-1,7,13,9
18:55:22.581450,-5,3,-3,-3,-4,-5,5,-9
18:55:22.602440,1,-1,2,1,0,3,-3,-3
18:55:22.603436,1,1,-3,-3,0,-6,1,-1
18:55:22.618431,-3,-1,-3,-4,-5,4,2,-2
18:55:22.625426,-3,-4,-2,0,0,-1,2,-1
18:55:22.640417,-2,-2,-3,-3,-4,-7,-3,-3
18:55:22.641417,-1,0,-1,-1,1,1,12,11
18:55:22.662400,0,-5,-2,-3,-1,0,1,0
18:55:22.663401,-4,-1,-1,-3,0,-3,10,-3
18:55:22.685388,-1,0,-3,-2,-2,0,-8,-5
18:55:22.686385,2,2,-1,-2,1,4,2,1
18:55:22.708374,3,6,3,5,4,2,0,0
18:55:22.708374,-5,-1,-4,-4,-2,-3,-3,-9
18:55:22.723363,-6,2,0,0,3,6,4,-2
18:55:22.723363,-6,-3,-3,0,0,-2,-15,-8
18:55:22.745349,-4,-5,-2,-2,-5,-2,-4,-5
18:55:22.746348,2,-4,1,2,4,0,1,-2
18:55:22.760342,-7,-2,-5,-2,1,-1,-11,-3
18:55:22.761340,1,0,-3,-3,-1,3,1,2
18:55:22.783324,-10,-7,-5,-7,-7,-5,-4,-2
18:55:22.783324,-1,0,0,-1,-4,-1,2,5
18:55:22.805314,4,4,0,0,-1,-1,0,1
18:55:22.806312,-4,-2,0,-2,2,-1,-3,-3
18:55:22.820305,-3,-4,-3,0,-1,-3,-8,-7
18:55:22.821303,3,4,2,2,-1,0,-3,12
18:55:22.843289,0,-1,-4,-2,-3,-5,-6,-4
18:55:22.843289,-5,0,0,-1,-3,-2,8,-7
18:55:22.865277,2,-1,2,0,1,0,9,2
18:55:22.866274,1,2,2,4,4,-1,8,2
18:55:22.880268,8,3,0,1,1,2,3,4
18:55:22.881267,-2,-1,-1,-2,-3,-1,4,2
18:55:22.903254,-1,1,1,1,-1,-3,-7,-7
18:55:22.903254,-1,1,1,1,4,5,5,0
18:55:22.925240,1,-1,0,0,0,-2,0,4
18:55:22.926238,-6,-7,0,-3,-3,-3,-15,-18
18:55:22.940230,12,3,4,4,6,5,-11,22
18:55:22.948225,-6,-1,-6,-3,-1,-2,3,-6
18:55:22.963214,-5,-4,-2,-3,0,-2,10,-2
18:55:22.963214,-3,2,0,0,-3,-1,1,0
18:55:22.985203,-1,-5,-5,-3,-3,-2,-4,-2
18:55:22.986202,-2,0,0,-2,0,-2,-2,-2
18:55:23.008186,5,3,1,-1,-1,0,-2,-1
18:55:23.008186,-3,-5,-4,-1,-2,-5,-3,-5
18:55:23.023176,-4,-1,0,0,0,-3,-5,-5
18:55:23.023176,1,2,2,-2,0,-8,-2,-3
18:55:23.045163,12,2,0,-2,1,5,11,1
18:55:23.046163,0,0,-2,-1,0,2,-2,2
18:55:23.068148,-1,-2,0,0,0,0,-4,-4
18:55:23.068148,2,3,-1,4,3,2,10,6
18:55:23.083141,-4,-3,2,-1,-2,-2,-1,2
18:55:23.084140,-2,0,0,-5,-5,-1,-4,-8
18:55:23.105128,3,0,2,5,6,0,2,3
18:55:23.106125,-6,-3,-3,-3,-1,-3,11,-10
18:55:23.128113,3,1,0,2,0,-1,-7,-6
18:55:23.129110,-6,0,-2,-3,-1,-1,2,-6
18:55:23.143101,4,2,0,0,-1,0,26,20
18:55:23.144103,5,5,1,-2,-1,-2,-13,4
18:55:23.165090,0,-3,0,-3,-1,-1,-1,-6
18:55:23.166088,0,0,1,-3,-2,-3,-13,-2
18:55:23.181079,-4,-4,-1,-1,1,-1,4,0
18:55:23.188077,-2,1,0,1,-1,-3,0,2
18:55:23.203068,-7,-6,-3,-4,-9,0,-8,3
18:55:23.204065,0,0,0,-2,2,1,0,-4
18:55:23.225054,-4,-3,-1,0,-2,-5,0,-3
18:55:23.226050,-1,0,-3,0,-3,-5,21,-8
18:55:23.241043,10,4,1,0,0,7,6,6
18:55:23.248040,-2,-2,0,0,-1,-3,-2,-5
18:55:23.263031,-5,-3,-2,-3,5,-1,0,-4
18:55:23.264028,-2,-4,-2,2,4,1,-7,-1
18:55:23.286015,3,-1,-3,-2,5,1,1,-2
18:55:23.286015,-2,-3,-1,-7,-36,-2,19,-6
18:55:23.300004,7,-2,-2,-17,30,9,-3,1
18:55:23.301004,-8,-6,2,-11,-33,-7,-1,-5
18:55:23.329985,-6,-4,-5,0,-7,-4,-9,-13
18:55:23.330986,7,1,0,1,11,5,4,17
18:55:23.344978,-2,0,-1,4,0,-5,0,-6
18:55:23.345977,-2,-2,-3,-1,-1,0,2,3
18:55:23.367966,-1,-4,-3,-4,-3,-5,-3,-9
18:55:23.368961,-3,0,2,1,-2,-1,-10,-4
18:55:23.382956,2,-1,-2,2,20,-1,3,0
18:55:23.383955,-1,-1,0,20,16,0,1,-7
18:55:23.404940,2,3,-1,2,7,4,11,4
18:55:23.405939,-2,-1,-4,0,0,-2,1,-3
18:55:23.435920,-2,-2,0,-2,-7,-1,14,-8
18:55:23.435920,-1,-3,-1,0,-4,0,1,2
18:55:23.442919,-2,1,0,-1,0,3,0,-8
18:55:23.443918,5,0,-2,-2,0,5,4,17
18:55:23.465904,-2,0,0,-1,0,-6,-9,2
18:55:23.465904,-1,3,-2,6,2,6,6,2
18:55:23.487891,-11,-3,-1,1,3,-6,-5,-11
18:55:23.488888,-2,-3,-3,-5,-5,0,-12,-1
18:55:23.502882,3,-1,-2,1,-4,0,-12,-2
18:55:23.503881,-1,0,1,-7,-29,-5,-4,-6
18:55:23.524866,-1,-1,-4,2,7,-3,-5,-5
18:55:23.525865,0,-4,-1,1,-3,-2,1,-5
18:55:23.547854,-7,-5,-1,-13,-3,-1,1,-5
18:55:23.548854,-3,0,1,-2,2,3,8,9
18:55:23.562841,-2,-2,0,-3,-1,1,-7,-5
18:55:23.563844,1,-4,-2,-3,-1,-5,5,11
18:55:23.585829,-1,-1,0,1,3,0,-3,-5
18:55:23.585829,-3,0,-3,0,0,-1,7,9
18:55:23.607813,2,0,-2,0,-4,1,-1,-2
18:55:23.608813,-2,1,0,0,0,3,6,-2
18:55:23.622807,0,-3,0,-2,2,-3,-10,7
18:55:23.623803,2,-2,-2,-1,-4,-2,-15,-1
18:55:23.645790,-1,0,-4,-3,-3,-3,1,-4
18:55:23.645790,-3,-3,-4,-9,-8,-4,-4,-9
18:55:23.667779,4,0,0,2,-3,-3,-1,-5
18:55:23.668775,-4,-3,-1,0,2,1,-12,0
18:55:23.682770,0,-2,0,-1,2,-2,2,-4
18:55:23.683767,4,-3,0,1,-3,1,4,6
18:55:23.705753,-7,-3,-1,-2,-3,-3,-4,-3
18:55:23.705753,0,1,-4,0,-4,-1,14,0
18:55:23.727742,-1,-4,-1,-2,0,-1,1,2
18:55:23.728741,0,-1,-3,3,34,4,2,-6
18:55:23.742733,0,0,1,1,40,0,11,6
18:55:23.743729,4,2,2,-1,26,3,-5,3
18:55:23.765716,-5,-4,-1,-13,-85,-21,-4,-5
18:55:23.765716,-4,-3,0,2,34,4,-17,1
18:55:23.787705,-4,3,4,-6,-12,-5,8,-1
18:55:23.788702,1,-2,-1,0,-5,-3,-1,-3
18:55:23.802696,0,-3,-1,0,-3,-3,13,-6
18:55:23.803695,5,2,0,2,1,2,-2,-9
18:55:23.825678,-2,-1,-1,-2,-3,-2,0,-4
18:55:23.825678,-5,-1,-1,1,2,1,-1,-3
18:55:23.847667,5,2,2,-20,3,-2,16,2
18:55:23.848667,-3,1,5,12,75,6,-1,-2
18:55:23.862658,-3,-2,1,-2,5,-1,-14,-2
18:55:23.863658,-7,-8,-2,-10,-12,-1,-5,3
18:55:23.885641,-3,-4,-1,5,-2,-4,2,-3
18:55:23.885641,-3,-2,0,-3,-7,-3,15,-4
18:55:23.907631,1,-2,1,0,-2,4,-1,-1
18:55:23.908629,-9,-8,-3,-2,-3,-6,-15,-25
18:55:23.922621,4,1,2,13,36,10,9,14
18:55:23.923620,-8,-4,4,1,-1,-1,-5,-12
18:55:23.945607,-1,-4,-2,-5,-4,-4,0,-6
18:55:23.946607,6,5,-1,0,-3,-1,3,1
18:55:23.967590,3,0,-4,0,-2,0,3,-1
18:55:23.968590,8,4,0,-2,0,2,-8,1
18:55:23.982584,2,0,0,1,-1,4,4,6
18:55:23.983581,-4,-2,-1,-3,-3,1,3,-4
18:55:24.005568,4,0,2,-4,-1,4,5,4
18:55:24.005568,-1,0,-3,-4,-9,-5,0,3
18:55:24.027556,-6,-4,-4,7,-24,-1,-10,-8
18:55:24.028553,9,3,0,-6,7,-8,-16,8
18:55:24.042546,-4,-3,-2,-2,14,-2,11,-10
18:55:24.043548,-1,0,0,0,1,-5,0,-1
18:55:24.065533,3,-1,3,-1,-2,-3,-8,-2
18:55:24.066530,-2,-1,0,-1,-3,-3,-7,-1
18:55:24.088516,-1,-3,-5,-2,-3,0,-12,-5
18:55:24.088516,13,5,-2,3,-3,-1,14,8
18:55:24.102508,2,0,0,-2,-5,-6,-9,-7
18:55:24.103509,-1,-2,-3,6,14,0,-2,-3
18:55:24.125492,0,-1,-1,28,8,0,-14,2
18:55:24.125492,-4,-1,-1,-7,4,2,2,-3
18:55:24.147480,-2,0,0,-1,7,0,-14,2
18:55:24.148481,-1,-5,-4,0,-2,-2,-1,1
18:55:24.170468,0,0,5,1,1,5,9,5
18:55:24.170468,-8,-1,2,-1,2,6,-1,3
18:55:24.185458,-3,0,1,-1,-3,1,-5,-1
18:55:24.185458,-1,-1,-3,-4,-7,-5,12,8
18:55:24.207444,-1,-1,1,12,6,4,15,5
18:55:24.208442,-7,-7,-6,-3,-5,-5,-2,-13
18:55:24.222432,7,0,-1,-3,1,-2,0,2
18:55:24.223433,-9,-6,-6,-15,-38,-4,-10,-3
18:55:24.245418,1,-2,0,0,5,-1,5,-9
18:55:24.246417,4,-2,0,19,3,0,9,18
18:55:24.267405,-9,-7,-1,3,22,0,-1,-4
18:55:24.268404,0,0,2,-2,7,-2,-1,-1
18:55:24.283397,-2,-1,-1,-2,2,1,0,-4
18:55:24.290393,-1,1,0,-1,2,-5,7,-6
18:55:24.305384,-7,-6,-5,3,8,0,10,-13
18:55:24.306388,1,4,2,-1,0,13,-15,3
18:55:24.328367,1,0,-3,-9,-9,1,6,1
18:55:24.328367,-6,-2,2,5,9,-1,-6,1
18:55:24.350356,-2,-1,-2,-5,-7,-2,1,-2
18:55:24.351352,-1,-2,-3,-2,-3,1,0,-4
18:55:24.365347,-2,-3,-3,-2,1,-2,1,0
18:55:24.366343,-2,0,-1,-3,-1,-1,-3,-2
18:55:24.388329,-4,-1,0,1,-2,0,2,0
18:55:24.388329,-7,-4,1,0,-4,-3,-4,-2
18:55:24.410319,-1,1,0,2,3,6,2,-3
18:55:24.411315,1,-2,-5,-1,-12,-1,12,-4
18:55:24.433301,-2,-4,-1,-8,-35,-2,0,-1
18:55:24.433301,2,-2,0,4,5,-2,-3,-7
18:55:24.448295,4,2,3,38,4,0,25,11
18:55:24.448295,2,1,-1,-1,6,0,-5,-1
18:55:24.470281,-5,-3,-5,-6,-7,-5,-15,-7
18:55:24.471278,5,0,-1,4,6,3,7,2
18:55:24.485273,2,2,1,-4,-5,-1,0,-4
18:55:24.486270,-6,3,1,0,0,-3,-2,-8
18:55:24.508255,0,0,-2,0,-1,6,5,8
18:55:24.508255,0,-4,-4,-3,7,-8,-8,-11
18:55:24.530245,3,0,1,-2,-5,1,0,0
18:55:24.531241,-3,-3,-3,14,29,3,4,3
18:55:24.545232,1,1,1,12,4,0,-10,1
18:55:24.546232,0,-1,-1,-3,3,-3,1,0
18:55:24.568220,-7,-4,0,-3,-3,-5,0,-3
18:55:24.568220,6,3,4,2,-1,0,-4,-1
18:55:24.590207,-3,2,2,1,-6,-3,16,0
18:55:24.591204,0,1,2,-1,1,-1,0,3
18:55:24.605198,0,-4,-4,-2,-8,-3,1,-2
18:55:24.606194,-6,1,3,-1,0,-2,-4,-8
18:55:24.628181,0,-1,-4,-3,0,-1,1,2
18:55:24.628181,5,2,4,2,0,2,1,-1
18:55:24.650170,1,1,1,1,1,0,5,11
18:55:24.651169,1,-3,-2,-2,-4,-5,-13,-5
18:55:24.665161,7,2,-1,0,-2,-3,17,9
18:55:24.666158,-3,2,-2,0,0,3,2,-4
18:55:24.688147,-2,-4,-1,-4,-2,-4,1,-2
18:55:24.688147,3,-1,1,-3,-4,-4,3,0
18:55:24.710133,2,1,0,-2,0,0,-6,-7
18:55:24.711132,-4,-2,-1,0,-3,1,-19,-7
18:55:24.725121,-3,2,1,2,0,2,4,-2
18:55:24.726123,-4,-2,-3,-5,-2,-1,-1,0
18:55:24.748109,3,2,-1,-2,-4,-5,-8,19
18:55:24.749108,-6,-3,-3,1,-2,-6,6,-2
18:55:24.770096,0,0,3,0,0,3,10,-3
18:55:24.771095,-9,-5,-1,-3,-1,2,4,-3
18:55:24.785086,3,0,-2,-1,-3,-3,-2,-3
18:55:24.786085,-2,-6,0,-1,-1,0,1,2
18:55:24.808072,0,3,2,1,1,-4,-18,-6
18:55:24.809074,-1,-2,-1,-15,-4,-2,-1,-4
18:55:24.830058,1,0,-2,1,0,2,2,3
18:55:24.831056,0,2,-2,2,6,-5,-5,-1
18:55:24.845049,-4,-4,-1,6,8,3,-33,1
18:55:24.846046,-7,-4,-1,-8,-8,-5,-9,-13
18:55:24.868035,0,1,1,-1,-3,-2,4,-7
18:55:24.869031,4,0,1,0,-1,-2,-1,-5
18:55:24.890020,4,0,2,0,6,-3,0,-2
18:55:24.891018,4,2,1,1,0,2,7,7
18:55:24.905011,2,-2,0,1,-2,0,-12,-1
18:55:24.906008,-1,0,0,0,1,-1,2,-1
18:55:24.927997,4,1,-2,-2,-1,-1,1,1
18:55:24.928994,-6,-4,-3,-16,-10,-4,1,2
18:55:24.950981,2,-1,-1,-1,0,-3,12,-6
18:55:24.950981,-1,0,0,-2,0,1,7,2
18:55:24.964971,0,1,0,1,-4,-3,3,6
18:55:24.965972,-3,-1,-4,-2,0,-2,2,2
18:55:24.995953,3,-2,-2,0,-1,-4,-4,-4
18:55:24.995953,-2,-1,-1,2,-2,-1,23,11
18:55:25.009944,4,-1,0,-2,2,2,1,1
18:55:25.010948,-1,0,-1,2,3,2,3,4
18:55:25.024934,-3,-3,-3,0,-5,0,7,0
18:55:25.025936,-6,2,4,0,-4,-1,-10,6
18:55:25.047924,-3,3,1,2,1,-2,2,-3
18:55:25.048922,-2,-1,-1,24,3,-3,-2,-5
18:55:25.070906,0,-2,-2,-3,4,6,18,8
18:55:25.070906,8,-1,1,5,-6,-2,-4,-1
18:55:25.085897,-3,-2,-2,-1,2,-1,-1,0
18:55:25.092896,-1,-4,-5,-2,-6,-1,-7,-4
18:55:25.107886,-3,-2,0,-1,-2,-5,-5,-5
18:55:25.108882,-1,0,0,-1,2,4,-8,-2
18:55:25.129873,-1,-3,0,-4,-6,-1,2,-1
18:55:25.130868,2,-3,-6,0,1,-3,-11,-1
18:55:25.145859,0,0,-3,-3,-2,-2,6,0
18:55:25.152855,-1,-3,-1,-1,3,0,9,7
18:55:25.167849,0,-4,-2,-5,-7,-4,-1,-4
18:55:25.168845,0,-1,2,0,-1,-3,-1,3
18:55:25.190831,-1,-3,0,-2,-2,-1,-22,-6
18:55:25.190831,-3,0,-2,0,0,0,1,-10
18:55:25.205825,-3,-5,-3,2,3,-1,5,7
18:55:25.212821,-2,-3,-3,-11,-4,0,-5,-7
18:55:25.227811,-3,-3,-1,3,-5,-1,30,0
18:55:25.228808,0,0,0,-2,0,-3,-1,-3
18:55:25.250795,-2,0,-1,-4,-2,-1,18,6
18:55:25.250795,-4,-2,-2,-1,-1,1,-2,-4
18:55:25.265788,-2,-1,0,-1,1,-2,2,-1
18:55:25.280787,-4,0,-1,2,3,1,-2,1
18:55:25.287775,-2,-3,-3,-3,0,-6,-5,-1
18:55:25.288771,0,1,1,1,6,4,5,4
18:55:25.317756,-3,-1,2,-3,-1,-2,-9,-8
18:55:25.318752,3,0,-5,-5,-9,-6,-3,-4
18:55:25.325751,-4,-2,2,0,5,-6,-1,-7
18:55:25.332745,1,3,3,3,2,9,1,4
18:55:25.347737,-1,-5,-4,-3,-5,-1,-12,1
18:55:25.348734,-8,-6,-2,-2,-4,-3,17,-1
18:55:25.370720,-1,-2,-4,6,-2,-4,-6,-6
18:55:25.370720,0,-1,0,-2,0,-1,2,0
18:55:25.385714,-1,-2,-1,-5,-5,1,-1,1
18:55:25.392706,-2,-2,-1,0,4,-2,-3,0
18:55:25.407700,-9,-1,-3,0,-4,2,-5,-6
18:55:25.408697,2,-1,-1,1,-5,0,-2,-3
18:55:25.430683,-3,-2,-4,-2,-5,-3,-20,-5
18:55:25.430683,-7,-7,-1,-3,-3,0,3,-3
18:55:25.445674,-6,-1,-4,-5,0,-1,1,-4
18:55:25.452669,-1,-3,0,-3,-1,3,9,0
18:55:25.467663,-1,1,0,1,-2,-2,7,5
18:55:25.468660,0,1,-3,-4,-6,-8,-2,-6
18:55:25.490646,-1,-4,-5,-3,0,-3,-2,0
18:55:25.490646,-1,-2,0,1,0,0,-2,6
18:55:25.512635,-3,-1,1,7,0,-4,-1,-4
18:55:25.513634,-6,-4,-3,-1,5,-1,2,-9
18:55:25.535621,9,1,-1,-2,-1,3,-13,-3
18:55:25.536619,-4,-8,-1,-2,-3,-5,-3,0
18:55:25.550612,4,2,0,-1,-3,2,11,16
18:55:25.551611,-4,-1,0,0,1,-2,-13,-3
18:55:25.572598,-3,0,1,1,0,-3,1,-10
18:55:25.573595,6,4,-2,4,1,5,8,8
18:55:25.587589,-5,-3,-2,-2,0,-3,-22,-10
18:55:25.588586,3,-2,-3,0,0,3,23,11
18:55:25.610574,-1,2,2,1,-7,-9,2,1
18:55:25.610574,2,0,-2,-3,1,0,-1,0
18:55:25.632561,0,0,-1,-2,-1,0,0,-6
18:55:25.633560,-1,-2,-2,-3,-3,-1,-14,8
18:55:25.647550,-1,0,2,2,0,2,2,-3
18:55:25.648550,-2,-3,-1,-4,2,-2,-3,-2
18:55:25.670537,-1,1,-1,1,-1,-1,2,0
18:55:25.670537,-7,-6,-2,-1,-2,0,-9,-5
18:55:25.692522,1,0,-1,1,-2,-3,13,-2
18:55:25.693523,-3,-2,-4,-8,-4,-4,-11,-3
18:55:25.707513,-2,0,-1,8,4,-1,0,-5
18:55:25.708512,8,-1,1,2,5,3,6,6
18:55:25.730500,-4,0,-3,-4,-4,-5,-15,-6
18:55:25.738495,-3,-4,-2,0,2,2,-1,-3
18:55:25.753486,4,1,1,-1,4,-2,-4,2
18:55:25.753486,-4,-1,0,-1,-1,1,1,-3
18:55:25.768477,-1,0,-3,-4,-6,-1,-2,-1
18:55:25.775472,-3,1,-3,0,-2,-3,-5,-1
18:55:25.790463,7,5,-1,2,4,4,-10,14
18:55:25.791460,-5,-4,-2,-2,-2,-1,5,5
18:55:25.813446,-7,-3,-6,-5,-5,-7,6,-9
18:55:25.813446,8,5,-3,-14,-5,2,7,2
18:55:25.828437,-2,-4,-3,1,-4,-1,-11,-1
18:55:25.835435,-3,-2,0,1,4,-4,-3,-2
18:55:25.850426,-5,-2,1,-5,0,-3,-2,-3
18:55:25.851424,-2,-3,-1,-5,-4,0,7,9
18:55:25.873410,7,2,3,5,4,4,-6,3
18:55:25.873410,0,-6,-1,-1,-1,0,-2,-1
18:55:25.888399,1,0,-1,-1,-7,-2,-12,0
18:55:25.903389,-4,-1,0,0,2,2,4,-4
