timestamp,emg1,emg2,emg3,emg4,emg5,emg6,emg7,emg8
16:27:14.373429,-2,1,0,0,-1,2,-2,0
16:27:14.383420,-2,-3,-2,-1,0,-1,0,0
16:27:14.403407,-2,-4,-4,-2,-2,-2,-1,-2
16:27:14.403407,-3,-1,-1,-1,2,1,-5,-1
16:27:14.418398,-3,0,-1,0,-2,0,0,3
16:27:14.418398,1,-2,-3,-2,-3,-3,-4,0
16:27:14.433389,0,-5,1,2,0,-1,2,-5
16:27:14.440425,-3,2,1,-3,0,-3,-1,2
16:27:14.455418,-3,-2,-1,-1,-2,-3,-1,1
16:27:14.463371,-2,-1,0,1,2,0,-1,2
16:27:14.478362,1,0,0,0,0,-1,1,-1
16:27:14.478362,1,-1,-4,-2,0,-9,-14,-3
16:27:14.493355,1,-2,-1,0,-2,0,3,2
16:27:14.501348,-1,-1,-2,0,0,2,2,2
16:27:14.516338,-4,-2,-3,-1,0,-1,0,1
16:27:14.523337,-2,1,-3,-2,0,2,1,1
16:27:14.538327,3,-1,-1,-2,-2,-3,0,-1
16:27:14.539324,-3,-3,-4,-2,0,1,1,0
16:27:14.553318,0,0,-2,0,-1,1,2,-3
16:27:14.560313,0,-1,-1,0,1,-1,0,1
16:27:14.576301,-1,0,-4,-2,-1,-1,-2,-2
16:27:14.583296,-4,-3,-3,1,-2,-1,-1,1
16:27:14.598290,2,-2,-3,0,-3,0,-2,0
16:27:14.599287,-1,-5,-1,0,-2,-5,-6,-2
16:27:14.613281,2,1,-1,1,1,1,3,0
16:27:14.621276,-3,-4,-2,0,4,1,-2,-1
16:27:14.636264,2,-3,0,-2,-6,0,-1,-3
16:27:14.643263,-3,-3,-1,1,2,-1,0,-2
16:27:14.658254,-3,-3,-2,1,0,2,-1,0
16:27:14.659250,0,0,1,0,2,-1,-2,-1
16:27:14.673241,-3,0,-3,-3,-2,-3,0,-5
16:27:14.681236,-3,-4,-1,-2,1,0,-3,1
16:27:14.696230,0,-3,0,-2,-4,-4,-3,-1
16:27:14.703226,-3,-1,-2,0,1,3,11,1
16:27:14.718217,-1,-1,1,-2,0,-2,-2,-2
16:27:14.719215,-1,-1,0,-1,-3,0,0,-1
16:27:14.733207,-2,-3,-1,-2,-3,-2,-1,-1
16:27:14.748195,-3,-6,-2,-4,2,3,-3,0
16:27:14.756192,-1,-2,-1,-1,-3,-9,-16,-3
16:27:14.763189,-2,1,-2,-3,-3,-8,-3,0
16:27:14.778180,1,-1,1,-1,1,-6,6,1
16:27:14.779178,-3,4,1,-1,2,-1,-4,1
16:27:14.793168,-3,-4,-1,-1,-1,-1,-3,-1
16:27:14.801163,-1,0,-1,-1,2,-2,1,0
16:27:14.816154,-1,-3,1,0,-4,-1,-4,0
16:27:14.823151,-1,-2,1,0,0,-1,-1,1
16:27:14.846135,0,-2,1,0,-1,1,6,2
16:27:14.847136,-3,0,1,-3,2,1,0,-1
16:27:14.853132,-1,-1,1,0,3,1,-1,-3
16:27:14.861126,0,-2,-2,0,2,2,1,0
16:27:14.876120,-4,-2,-1,-1,0,-2,-1,1
16:27:14.884113,-3,1,-2,-2,-1,-2,0,-3
16:27:14.899104,-2,-2,-1,-1,-4,-2,15,-3
16:27:14.899104,4,-1,-1,-1,0,-1,-5,-2
16:27:14.913094,-1,-3,1,0,-1,0,0,0
16:27:14.928084,-1,-3,-4,-2,3,1,2,2
16:27:14.936083,-3,-1,0,-1,0,1,-1,-1
16:27:14.943075,-4,-1,-1,-1,-1,-1,-4,-2
16:27:14.958068,0,-1,-1,-1,2,-1,3,0
16:27:14.959068,2,0,0,1,-1,-2,-2,0
16:27:14.973059,-1,1,-4,-2,0,-3,-1,-1
16:27:14.981052,-1,-3,-3,0,-4,-3,1,-2
16:27:14.996046,0,-2,0,1,0,0,1,-1
16:27:15.004039,-2,-3,-2,-3,-3,4,4,2
16:27:15.018030,-3,-3,-1,-1,-2,-2,-3,-1
16:27:15.019032,-1,-2,1,2,1,-1,0,-3
16:27:15.033020,0,-1,-1,-1,1,1,1,-1
16:27:15.041018,1,-3,-3,-1,1,-1,-2,0
16:27:15.056006,-1,-3,-2,-1,-1,1,-3,-2
16:27:15.063001,-3,-4,-2,-3,-2,-4,0,2
16:27:15.077992,-4,4,-2,1,-3,-4,-8,0
16:27:15.078991,-5,-3,-3,-1,-2,3,5,2
16:27:15.092986,0,-3,-1,0,-4,0,-3,-1
16:27:15.100978,-1,-1,0,2,0,0,2,0
16:27:15.115970,-1,0,0,-2,-2,0,-3,-2
16:27:15.122964,-2,-3,-1,-3,0,3,1,2
16:27:15.137955,-1,0,-1,-2,-1,-2,-3,-3
16:27:15.138956,-1,0,-1,1,4,0,-1,3
16:27:15.153949,1,-2,-1,-1,-5,-5,-2,0
16:27:15.160944,-2,-2,0,-4,0,3,0,1
16:27:15.175932,1,0,1,-1,2,-1,-1,-4
16:27:15.183928,-3,-1,-1,0,2,0,-4,1
16:27:15.198919,2,1,0,-1,-3,1,6,2
16:27:15.198919,-4,0,-1,0,1,5,2,0
16:27:15.213909,0,-3,-2,-3,-1,-3,-1,0
16:27:15.220904,-1,-1,-1,2,-3,1,0,0
16:27:15.235898,-2,-1,-4,-1,-3,0,-3,0
16:27:15.243893,-3,-4,-2,4,1,0,2,3
16:27:15.258884,-1,0,-2,1,0,1,-3,-2
16:27:15.265877,-2,0,-2,-1,1,1,-1,1
16:27:15.273874,-2,-2,-5,-3,1,-1,-1,-3
16:27:15.280870,-1,-3,1,0,0,0,10,3
16:27:15.295861,1,0,0,0,-2,-9,-7,0
16:27:15.303853,4,-1,-1,1,3,11,12,8
16:27:15.318847,-2,-3,-1,-2,-1,-4,-1,-3
16:27:15.325843,-3,0,0,2,0,2,0,2
16:27:15.333839,-2,-1,-2,-2,-4,-3,-4,-1
16:27:15.340834,-1,-1,0,-2,1,-1,1,0
16:27:15.355824,-1,-3,0,-4,-2,-1,-1,-1
16:27:15.363819,0,-1,-4,-3,1,-1,0,-3
16:27:15.385805,-3,-3,-2,-3,-2,1,-1,2
16:27:15.386803,-3,0,-1,-3,0,0,-2,1
16:27:15.400794,-1,1,-2,-4,-4,-4,-1,3
16:27:15.401793,-1,-1,0,-3,-1,-8,-17,-2
16:27:15.415785,1,0,-1,1,1,3,2,1
16:27:15.423779,3,-4,-2,2,1,3,1,2
16:27:15.438773,1,-1,0,-1,-3,0,0,1
16:27:15.445769,1,0,0,-4,1,-1,-3,-2
16:27:15.460757,1,-1,-1,-1,0,-2,0,-2
16:27:15.461758,1,-2,0,-1,1,1,-1,2
16:27:15.475748,-3,0,-2,2,-2,1,-2,-3
16:27:15.483743,-3,0,-4,-2,-3,1,-3,0
16:27:15.498734,3,-3,-3,-4,-1,0,0,-5
16:27:15.505729,-2,0,-1,1,-1,0,-3,-3
16:27:15.520723,-1,-1,-1,0,-1,-7,3,1
16:27:15.521722,-1,0,2,1,-1,-5,-11,1
16:27:15.535713,1,-1,-1,-1,-1,-1,2,-3
16:27:15.543709,-3,-2,-3,-1,3,-2,1,-2
16:27:15.558697,0,2,1,-1,-1,-2,-3,-3
16:27:15.565693,2,-3,-3,1,1,-1,-1,1
16:27:15.581683,-4,0,-1,-3,-1,-1,0,-1
16:27:15.582683,1,-3,0,-1,0,-1,1,2
16:27:15.595677,-3,-1,-1,-3,0,-1,-5,-4
16:27:15.603672,1,-3,0,0,3,3,-1,1
16:27:15.618660,0,-1,0,-1,0,-2,2,-5
16:27:15.625656,-2,0,-3,-1,2,1,0,-1
16:27:15.640649,2,-1,1,0,1,-3,-4,-2
16:27:15.641645,1,1,1,-1,0,3,3,3
16:27:15.655636,-1,-3,0,-2,-3,-4,1,-1
16:27:15.663632,-2,1,-4,-3,-1,3,-9,0
16:27:15.678626,-1,-3,0,-2,-2,0,1,-4
16:27:15.685618,0,1,0,-1,3,3,1,1
16:27:15.700612,-3,0,-1,1,-1,1,-2,0
16:27:15.701608,1,1,1,0,0,-3,3,5
16:27:15.715600,-3,0,0,-1,0,-2,-1,1
16:27:15.723594,3,3,-2,-1,0,-1,1,0
16:27:15.738589,0,1,1,-2,1,1,-1,-4
16:27:15.753579,-1,-4,1,0,1,-2,-2,0
16:27:15.760575,1,0,1,3,-4,1,-1,-1
16:27:15.761574,-3,0,-3,0,0,-2,-3,-1
16:27:15.775564,-3,0,2,-2,0,-3,0,1
16:27:15.783561,-3,0,-4,-1,3,0,-9,-4
16:27:15.798552,2,2,0,0,-1,-1,7,3
16:27:15.805547,0,-1,-2,1,-1,-2,0,0
16:27:15.820535,-3,-3,-1,-2,0,1,-3,-2
16:27:15.821537,0,-1,-1,0,-3,-1,-4,-2
16:27:15.835526,1,-1,0,-2,-3,0,-4,0
16:27:15.843524,0,0,-1,0,0,5,3,3
16:27:15.858515,0,0,1,-3,-1,0,1,0
16:27:15.866510,-6,-4,-2,-1,-1,3,0,0
16:27:15.880500,-2,0,-2,-2,0,0,-4,1
16:27:15.881498,-1,0,1,3,-2,-4,0,-3
16:27:15.895489,-4,-1,-3,1,-2,-4,1,2
16:27:15.903487,-3,-1,-2,-3,-3,0,1,1
16:27:15.918475,-3,-2,1,2,1,0,10,0
16:27:15.926473,-2,-1,-3,-1,-1,0,-1,-3
16:27:15.941461,0,-1,-2,2,0,2,2,1
16:27:15.941461,0,-2,-2,-4,-3,0,-3,-2
16:27:15.956454,0,-2,-2,-1,-2,1,-5,-1
16:27:15.963450,-3,-3,-1,-1,-1,-1,-1,-1
16:27:15.978441,-5,0,-3,-2,-1,-1,-3,-3
16:27:15.986435,-2,0,1,1,2,-2,1,0
16:27:16.001427,1,-1,-1,0,-3,0,-10,-1
16:27:16.001427,-2,0,-1,-3,2,0,1,3
16:27:16.016419,-1,-3,-1,-2,-4,-1,0,-2
16:27:16.023413,-3,0,-2,-2,-5,-1,-7,-1
16:27:16.038404,3,0,2,3,-2,0,0,3
16:27:16.046399,0,-1,-2,-1,2,-2,0,-1
16:27:16.060388,-3,-2,0,-4,-1,2,6,2
16:27:16.061388,-1,-3,-1,1,4,4,3,3
16:27:16.076381,-1,-2,0,-1,-2,-2,1,-1
16:27:16.083373,-5,-2,-2,-1,-3,-2,1,1
16:27:16.098367,-5,-2,-1,-3,-3,-1,-3,2
16:27:16.106363,2,0,-3,-1,1,5,21,1
16:27:16.121354,1,-1,-2,0,1,-2,-2,-4
16:27:16.121354,2,-3,-3,1,-1,5,4,1
16:27:16.136344,-2,-2,-2,-2,0,0,-5,-2
16:27:16.143339,-1,-1,0,-1,0,5,-3,-5
16:27:16.159328,0,0,-1,-1,-2,-2,-3,0
16:27:16.166323,-3,2,-3,-1,1,1,1,-2
16:27:16.181314,-3,-1,-1,0,-1,-6,-9,-8
16:27:16.188312,1,-2,-3,0,-1,-12,-19,12
16:27:16.203302,-2,-1,-2,0,-1,0,12,11
16:27:16.204299,-2,-1,0,-1,1,-3,-12,-7
16:27:16.218290,0,4,0,3,-2,-3,-6,-4
16:27:16.226289,-2,-5,0,-2,1,-2,1,-4
16:27:16.241278,-3,-6,-1,-4,-2,1,-13,-2
16:27:16.248273,-3,0,-1,0,3,1,2,4
16:27:16.256267,-6,0,-2,0,-1,5,-4,-10
16:27:16.263265,0,-2,0,-1,-1,-1,1,3
16:27:16.278256,-5,-3,-2,-1,-1,-4,4,-1
16:27:16.286250,2,0,3,-1,2,7,11,9
16:27:16.301242,7,1,0,-1,-2,-10,-29,2
16:27:16.308238,-5,-2,-4,-3,-1,8,9,0
16:27:16.323229,-1,-4,-3,-2,-1,1,13,-4
16:27:16.324228,-2,-1,-3,-5,0,-1,-4,0
16:27:16.346213,-1,-1,-3,-2,0,-1,0,1
16:27:16.346213,-2,-3,0,2,3,4,-1,2
16:27:16.361205,1,-2,-2,-1,-1,2,5,7
16:27:16.368198,-2,-2,-6,-2,0,5,14,-1
16:27:16.383192,-1,2,0,1,-1,-3,0,2
16:27:16.384190,-3,-3,-1,-1,0,-6,-5,-5
16:27:16.398179,0,2,0,-1,0,5,-2,1
16:27:16.406178,-4,-3,0,0,-2,-4,-8,-7
16:27:16.428164,4,3,0,2,5,0,8,4
16:27:16.429160,-2,-2,1,-1,1,-5,-9,-2
16:27:16.443155,-1,0,-1,0,-4,-2,-1,0
16:27:16.444154,0,-1,-1,-2,1,-1,1,-2
16:27:16.459144,-5,-4,0,3,-1,0,-1,6
16:27:16.466141,-1,0,4,0,0,1,-1,-1
16:27:16.481129,-1,0,1,-1,-3,-1,-9,-1
16:27:16.488127,2,-2,-1,-1,0,2,2,-3
16:27:16.503118,5,0,0,0,3,7,14,16
16:27:16.511113,-2,3,-5,-3,-4,0,-3,-4
16:27:16.519107,2,0,-2,-1,-1,0,-3,1
16:27:16.533096,0,0,-1,-2,0,-3,2,-2
16:27:16.541094,0,-2,1,0,2,-3,-2,1
16:27:16.548088,3,-3,-4,0,2,1,-1,1
16:27:16.563081,-4,-1,-2,-1,-2,0,-6,-6
16:27:16.564077,-1,-3,0,1,-1,-10,-11,3
16:27:16.579071,0,-3,-1,0,1,-3,-1,-1
16:27:16.586067,-3,1,-1,-2,1,-1,-3,-1
16:27:16.601058,-2,-2,1,0,2,0,0,-3
16:27:16.608053,-1,0,0,-3,2,0,-3,3
16:27:16.623044,-2,0,1,0,1,3,0,0
16:27:16.624041,0,-2,0,0,-1,-10,-20,4
16:27:16.639034,0,1,1,0,0,-1,0,-2
16:27:16.646030,0,-1,-1,-1,0,0,2,-2
16:27:16.661021,0,-3,1,-2,-2,-2,-1,-3
16:27:16.668014,-2,1,0,-1,-1,1,0,-2
16:27:16.683006,-2,-3,2,1,1,-1,2,0
16:27:16.684003,1,2,-5,-3,-1,-3,-2,3
16:27:16.698994,-6,-6,-5,2,-4,-6,-3,-5
16:27:16.705993,1,0,-6,-4,-1,2,2,2
16:27:16.720984,-3,-5,-7,-7,-3,-4,0,-1
16:27:16.727980,-2,4,7,3,2,-1,-1,1
16:27:16.742969,0,-3,-1,10,6,2,-1,0
16:27:16.750965,1,-1,-11,-25,-15,4,-1,-1
16:27:16.757960,1,6,36,34,15,1,2,0
16:27:16.765956,-2,-4,-25,-44,-11,-3,-1,-1
16:27:16.787940,1,1,-1,-26,3,11,1,1
16:27:16.788939,-3,1,35,-4,-102,-21,-5,-4
16:27:16.802935,-3,-1,-6,31,53,2,-5,-4
16:27:16.803933,9,3,-22,25,47,21,5,6
16:27:16.818921,-4,1,42,-15,-40,4,-3,1
16:27:16.825919,0,-4,11,127,70,8,3,5
16:27:16.840910,5,0,-107,-128,-128,-23,2,3
16:27:16.848902,-13,13,64,127,127,49,-8,-14
16:27:16.870892,11,-9,15,-103,-128,-54,6,13
16:27:16.871890,-9,3,-32,21,127,10,-9,-8
16:27:16.878886,16,-4,-126,-128,-128,-6,14,17
16:27:16.885882,-19,-6,127,127,6,2,-15,-27
16:27:16.900873,3,-2,57,127,127,22,-5,-1
16:27:16.908867,3,18,-74,25,-128,-119,-5,-3
16:27:16.922857,-20,-38,75,100,127,23,-24,-22
16:27:16.923856,16,55,70,127,127,83,20,19
16:27:16.937851,-45,-111,-128,127,127,-2,-28,-22
16:27:16.953840,18,51,51,-32,-128,-2,15,16
16:27:16.960836,53,80,-13,-111,127,127,40,29
16:27:16.968830,-29,1,127,-29,127,-62,-40,-37
16:27:16.983820,-23,-78,-56,127,-128,-1,1,-2
16:27:16.983820,19,31,26,90,-128,26,14,15
16:27:16.998814,-35,-7,8,127,-96,-9,-22,-32
16:27:17.005808,-3,-8,-35,-121,-32,-23,-7,0
16:27:17.020799,8,26,21,47,-67,15,9,2
16:27:17.028794,-30,-54,-21,-99,-35,-20,-16,-15
16:27:17.043784,21,41,29,40,0,14,9,10
16:27:17.043784,6,20,9,-28,-14,9,4,0
16:27:17.058773,-13,-24,-24,-41,-23,-12,-8,-8
16:27:17.065768,2,8,11,0,-10,5,-1,-2
16:27:17.095753,-19,-43,-58,-51,-19,-29,-11,-8
16:27:17.096752,-38,-45,-25,4,-28,-44,-25,-24
16:27:17.103745,6,-23,-24,91,110,27,14,12
16:27:17.103745,5,16,15,104,8,-29,-8,0
16:27:17.118739,26,51,0,-50,28,47,17,16
16:27:17.133730,6,1,14,36,68,24,0,5
16:27:17.140724,23,47,14,-73,-48,-22,-5,5
16:27:17.148717,-56,-82,-13,-99,127,35,-18,-23
16:27:17.163711,-4,-11,-15,-128,-111,-46,-11,-9
16:27:17.178699,60,88,39,127,127,58,28,37
16:27:17.178699,35,89,66,-128,-19,15,8,7
16:27:17.185694,48,77,88,-13,127,42,18,20
16:27:17.200686,22,77,22,-128,-76,-10,2,8
16:27:17.215679,-5,21,-20,-57,-34,-6,-4,-7
16:27:17.223674,-43,-75,-56,59,15,-3,-13,-18
16:27:17.230666,23,56,30,-128,-104,15,4,11
16:27:17.238665,-3,6,16,83,54,-3,0,-3
16:27:17.245657,4,-4,-48,-94,-91,-11,4,7
16:27:17.260649,-11,-11,-12,-31,-128,-28,-12,-13
16:27:17.268647,-8,-19,-53,-47,-60,-32,-10,-7
16:27:17.283637,12,33,30,38,69,27,7,6
16:27:17.290631,25,67,75,-71,9,-2,5,8
16:27:17.313616,-23,-41,-29,-57,-128,0,-7,-11
16:27:17.314616,-22,-20,-36,-120,-17,-27,-15,-13
16:27:17.320612,-16,-35,-25,-33,-67,-12,-8,-6
16:27:17.328610,-41,-102,-57,74,-58,-47,-23,-17
16:27:17.343601,10,23,1,-66,23,15,1,4
16:27:17.350595,-31,-45,0,115,-104,-9,-10,-12
16:27:17.365587,1,-1,-25,104,-76,-10,1,0
16:27:17.366583,16,32,39,-6,-26,4,6,8
16:27:17.381577,-54,-108,-84,9,4,2,-8,-19
16:27:17.388573,-1,24,48,30,13,2,-5,-6
16:27:17.403564,12,46,40,96,127,19,0,4
16:27:17.410556,-17,-20,-8,42,-73,-9,-10,-10
16:27:17.425550,-2,-21,-23,41,2,27,7,1
16:27:17.426549,30,90,57,13,52,-12,1,1
16:27:17.441541,-4,-16,-23,-91,-25,3,0,2
16:27:17.448533,-35,-49,-45,18,42,11,-17,-19
16:27:17.463527,18,37,53,127,127,42,7,4
16:27:17.470522,1,4,15,-95,9,26,10,8
16:27:17.486512,14,36,29,-27,104,-6,4,5
16:27:17.486512,3,12,24,53,33,18,3,0
16:27:17.501501,-5,-12,-21,-61,-128,-45,-8,-5
16:27:17.508499,-7,-6,12,38,-10,-8,-1,-3
16:27:17.523490,-22,-51,-39,9,-8,-27,-6,-10
16:27:17.530482,5,17,22,-13,79,-16,-3,-3
16:27:17.553471,10,43,42,-20,90,31,-5,-2
16:27:17.554471,-8,-7,10,103,90,26,-4,-7
16:27:17.560467,11,2,-34,-63,-40,-3,10,10
16:27:17.568462,13,28,5,-108,-83,-24,3,2
16:27:17.583452,-14,-20,-19,6,-5,-15,-5,-7
16:27:17.591448,-6,-25,-19,-128,-110,-17,-1,-4
16:27:17.605437,8,17,22,9,-9,16,2,3
16:27:17.620428,-19,-26,-14,12,-2,-3,-5,-7
16:27:17.621427,-3,-20,-22,-62,-62,-29,-3,2
16:27:17.628425,-10,-12,20,39,82,10,-2,-5
16:27:17.643416,10,21,21,-25,-109,-15,2,3
16:27:17.651408,-41,-61,-32,-4,-37,-33,-19,-23
16:27:17.665400,5,17,20,-56,-128,-8,0,1
16:27:17.666402,13,25,16,56,-42,11,6,2
16:27:17.681389,0,-12,-6,-7,3,6,2,2
16:27:17.711373,-45,-79,-95,-33,12,-19,-23,-21
16:27:17.711373,4,15,14,35,127,37,5,0
16:27:17.712373,-11,-27,-24,20,-21,-10,-5,-6
16:27:17.725363,11,31,35,4,-28,-14,-1,2
16:27:17.726362,11,6,18,11,-4,14,5,4
16:27:17.741355,5,2,3,11,26,3,-1,-2
16:27:17.748349,5,7,6,36,73,40,5,3
16:27:17.763342,7,17,21,11,-25,8,6,5
16:27:17.771337,-20,-38,-39,-29,-20,-16,-12,-8
16:27:17.786327,10,13,8,14,11,-14,1,6
16:27:17.787327,-6,-12,-7,1,-6,-13,-3,-1
16:27:17.801319,8,22,26,18,1,4,-2,-1
16:27:17.808314,-3,4,10,-21,60,7,-2,-5
16:27:17.823305,-11,-16,-18,-34,-48,-8,-5,-6
16:27:17.831298,2,7,13,15,16,16,9,4
16:27:17.846290,-1,5,-15,-10,-12,-7,-1,1
16:27:17.846290,16,22,39,59,26,11,8,9
16:27:17.861282,-11,-17,-12,26,63,19,0,-5
16:27:17.868277,-5,-14,-8,48,-60,-1,1,0
16:27:17.891260,-8,4,2,-9,-39,-1,-4,-5
16:27:17.892260,-4,-9,0,-3,2,-2,-1,-4
16:27:17.906251,2,0,-16,0,14,8,1,0
16:27:17.906251,0,-2,-6,-65,-29,-12,-2,-1
16:27:17.928237,3,3,8,32,56,-8,-2,2
16:27:17.929240,5,14,17,-15,-13,10,3,-1
16:27:17.943230,-19,-26,-33,-29,43,1,-6,-7
16:27:17.951227,9,14,0,-1,-33,-5,2,4
16:27:17.966215,0,15,22,35,3,6,1,-4
16:27:17.966215,-15,-29,-33,-15,9,-1,-3,-3
16:27:17.981206,2,2,5,-3,-3,4,0,-1
16:27:17.988201,-1,0,0,-2,0,1,1,-2
16:27:18.011187,3,-3,1,-3,-4,0,6,3
16:27:18.011187,15,2,-2,2,3,1,-19,-7
16:27:18.026179,23,10,9,8,13,17,15,10
16:27:18.026179,17,-15,-30,-28,-39,-36,-6,-49
16:27:18.048167,73,-5,3,2,8,-17,75,105
16:27:18.049166,-69,-50,-34,-27,-41,-18,-53,-66
16:27:18.063155,63,36,24,19,17,4,38,-53
16:27:18.078146,3,-7,-26,-25,-12,-10,-88,48
16:27:18.086144,-17,-16,-17,-18,-31,-40,121,-47
16:27:18.093139,-86,-34,-9,-14,-5,-34,-81,38
16:27:18.108130,85,41,30,29,34,84,104,45
16:27:18.109129,-77,14,22,29,25,17,-128,55
16:27:18.123117,-128,-46,3,17,29,48,127,-58
16:27:18.131113,99,-5,-19,-26,-43,-33,127,87
16:27:18.146105,115,9,9,4,-3,5,70,20
16:27:18.153100,-23,8,9,7,3,-13,-17,-78
16:27:18.161097,-43,-11,-10,-19,-8,-1,18,-29
16:27:18.168090,22,17,25,62,17,31,49,15
16:27:18.184084,-29,-4,-2,12,-27,-29,-51,-6
16:27:18.191079,45,29,27,38,-12,17,10,70
16:27:18.214061,-83,-63,-33,73,-22,-12,-7,-56
16:27:18.214061,127,-32,26,-128,-62,52,30,127
16:27:18.228055,-108,-9,-86,112,-128,-42,5,-61
16:27:18.229053,42,-82,48,127,109,4,3,-38
16:27:18.244044,-29,32,10,-102,-128,-62,9,-15
16:27:18.251042,-91,12,31,5,9,11,114,-89
16:27:18.266033,56,-22,37,64,-16,76,9,79
16:27:18.274026,-91,-10,-56,44,-119,16,15,-21
16:27:18.288019,127,33,15,-128,-83,3,-32,89
16:27:18.289016,-58,-32,-70,25,71,9,25,-28
16:27:18.303007,21,-5,39,53,62,36,-5,127
16:27:18.311005,1,-10,45,-8,-97,-65,-62,-8
16:27:18.325996,-29,-9,-33,121,127,45,18,-32
16:27:18.333988,-66,-27,-30,-64,41,-18,-128,-14
16:27:18.347981,18,15,4,5,38,76,127,-39
16:27:18.348979,-93,-26,-10,27,-14,-30,2,-6
16:27:18.363972,-24,-11,-23,-4,-128,-98,27,-17
16:27:18.370968,-15,-20,-10,-23,21,3,0,-27
16:27:18.385959,-11,1,64,78,11,-5,-17,-2
16:27:18.392954,-4,-13,-77,-19,-86,-19,-4,-1
16:27:18.407942,-13,-13,9,60,82,-24,-20,-28
16:27:18.408946,23,-19,-43,-93,30,5,10,-12
16:27:18.423933,-66,-11,4,-28,-80,-8,4,-29
16:27:18.430928,-25,-4,-14,-47,-15,-6,-4,-5
16:27:18.445922,5,6,13,48,20,-1,-3,7
16:27:18.453914,15,-3,-32,-128,-44,-6,-4,-4
16:27:18.468905,5,-8,-10,21,-128,-21,11,-4
16:27:18.468905,7,9,-9,-10,111,3,0,14
16:27:18.483896,25,-21,-5,11,34,-31,-26,-22
16:27:18.490894,-30,-6,8,-3,-16,-14,-13,-24
16:27:18.505885,0,-11,-31,-128,-99,-7,9,20
16:27:18.513877,-6,0,3,12,-42,-7,4,-1
16:27:18.528868,-32,-19,-16,-7,-118,-38,-17,-21
16:27:18.528868,7,-3,4,3,29,23,11,39
16:27:18.543859,13,5,4,-6,8,19,15,10
16:27:18.550857,-15,-2,-8,-28,1,-4,8,-17
16:27:18.565848,74,-4,13,26,27,56,52,64
16:27:18.573840,-4,-2,-8,-79,-16,-13,-9,-20
16:27:18.588833,-14,-5,8,29,-29,0,-4,-24
16:27:18.588833,-9,-3,-13,24,-13,-3,8,-3
16:27:18.603822,-7,-9,-10,0,-93,-41,-21,-8
16:27:18.610821,-5,-2,-3,6,19,4,-5,-1
16:27:18.625808,-3,5,11,12,2,12,2,-4
16:27:18.633806,-5,-7,-18,-72,-22,-3,-6,-3
16:27:18.648794,-8,2,6,17,-9,-4,-7,-2
16:27:18.648794,-3,0,0,-1,-5,12,8,4
16:27:18.663788,-11,-4,-6,55,19,-6,-7,-4
16:27:18.670784,-4,-3,-9,-82,-113,-21,-6,-3
16:27:18.685771,-5,-2,1,18,104,10,5,6
16:27:18.700764,1,4,5,6,16,0,-4,-2
16:27:18.708758,-19,-4,-7,-12,-17,11,8,-21
16:27:18.708758,20,-1,-8,-8,-19,-25,-15,12
16:27:18.723748,1,2,-2,-1,-4,-3,0,-1
16:27:18.730743,-8,-4,-9,15,1,4,3,-3
16:27:18.745735,1,2,1,11,3,-4,0,3
16:27:18.753733,-3,0,3,6,10,0,-1,-3
16:27:18.768720,1,-1,2,98,65,4,6,5
16:27:18.768720,-2,-5,-2,41,98,-5,-1,1
16:27:18.783714,2,0,1,4,5,9,14,-1
16:27:18.790708,13,2,2,-1,-2,4,4,19
16:27:18.813693,-4,-1,2,-2,-7,1,16,-1
16:27:18.814692,-1,1,-3,-3,1,-3,-21,-9
16:27:18.828690,-3,-4,-5,-5,-7,-4,-2,0
16:27:18.829683,-7,-2,2,-2,-3,-6,0,1
16:27:18.843677,5,1,3,2,0,0,-1,5
16:27:18.850670,-3,-5,-6,-5,-3,-4,7,-1
16:27:18.873656,-1,-3,4,2,-6,-2,-6,-4
16:27:18.874657,-1,-1,-1,0,5,3,3,0
16:27:18.888646,-6,-4,-4,-2,-5,-20,-23,2
16:27:18.888646,12,3,1,-1,0,13,0,2
16:27:18.903640,1,0,0,0,-4,-8,0,-4
16:27:18.910633,-1,0,5,2,0,1,3,-10
16:27:18.925624,1,-2,-3,-3,-5,-4,4,8
16:27:18.933622,-1,-1,1,2,3,-9,-6,-1
16:27:18.948613,2,-2,0,-3,-4,1,0,11
16:27:18.949609,-1,-1,1,0,-3,-4,2,-5
16:27:18.963603,-3,0,-2,0,-4,-3,2,-4
16:27:18.970597,-1,-1,-2,0,5,3,14,7
16:27:18.985587,1,1,-1,1,0,10,25,3
16:27:18.993585,-5,-4,-3,-2,-6,-4,1,-5
16:27:19.008576,3,2,2,2,4,-3,11,11
16:27:19.008576,0,3,-3,2,-2,-7,2,-2
16:27:19.031558,-3,-2,0,1,-2,-5,-6,-6
16:27:19.031558,-5,-3,-3,-3,-4,-4,-3,-2
16:27:19.046549,-2,-1,0,-1,1,1,4,3
16:27:19.053548,-2,-3,-4,-5,-5,-11,-4,-7
16:27:19.068539,-7,-2,1,-1,-2,-4,-5,-14
16:27:19.075534,-3,-5,-2,-3,-1,-3,-20,-7
16:27:19.090525,-6,0,-2,1,-1,-2,-2,-5
16:27:19.091522,-1,0,-1,-1,3,-2,4,0
16:27:19.106516,-1,0,3,2,5,3,2,-1
16:27:19.120506,-3,1,-5,0,-3,-5,12,-2
16:27:19.128502,-3,0,-2,0,-3,-3,-3,0
16:27:19.136494,0,-3,-1,-3,-1,-14,-14,9
16:27:19.151488,-3,-1,-1,0,1,-3,-4,-10
16:27:19.151488,-13,-2,0,-5,-6,-1,11,-5
16:27:19.173474,4,-2,-2,-4,-1,2,3,2
16:27:19.174471,-1,0,1,3,6,1,-2,0
16:27:19.188465,-1,-1,0,-1,-2,-3,-5,-1
16:27:19.195460,0,-1,-1,0,2,9,2,4
16:27:19.210448,0,3,1,2,1,0,0,-3
16:27:19.211448,-2,-2,2,-2,0,-1,-2,-4
16:27:19.226442,2,0,1,2,2,7,-8,1
16:27:19.233434,-4,0,0,-1,-1,1,5,3
16:27:19.255420,1,0,-3,3,0,-3,1,6
16:27:19.256422,6,-3,-6,-2,-5,-9,2,8
16:27:19.271414,-4,1,-1,0,-4,-6,0,-6
16:27:19.271414,-2,0,-4,-2,-4,0,1,-4
16:27:19.286404,-5,-5,-2,-5,-5,-10,-5,-4
16:27:19.293400,1,1,-1,0,-5,-10,2,3
16:27:19.308391,0,-1,-1,-4,-3,-3,-4,-1
16:27:19.316383,4,-3,0,2,1,4,9,6
16:27:19.330377,-2,0,-1,-1,-1,0,-8,-2
16:27:19.331374,3,-1,5,2,3,4,-8,-5
16:27:19.346365,8,1,2,1,1,4,-1,4
16:27:19.353363,-5,0,-3,0,-1,0,3,-7
16:27:19.368354,1,-1,-1,-4,-1,-5,-4,-2
16:27:19.376350,1,1,0,2,-1,4,0,0
16:27:19.391337,4,2,2,1,4,3,-2,-1
16:27:19.391337,-1,-2,-3,-1,-1,-2,-5,-1
16:27:19.406327,0,2,2,-4,-1,0,7,4
16:27:19.413326,4,0,-2,-4,0,3,2,3
16:27:19.428317,-2,-4,-1,3,-2,-1,-3,-6
16:27:19.436309,-4,-3,0,-4,2,-2,-7,-1
16:27:19.451301,-1,-3,0,1,0,-1,-20,-8
16:27:19.451301,-3,-1,-3,-4,-5,-7,4,-1
16:27:19.466294,2,-1,-3,-5,-3,-8,-15,-2
16:27:19.473289,-6,0,1,2,2,0,2,-18
16:27:19.488280,3,2,-3,-1,-1,-4,-3,-1
16:27:19.496272,-3,-2,-1,-1,0,-1,-5,-5
16:27:19.511264,-4,0,-1,-1,1,4,-4,-7
16:27:19.511264,-1,1,0,-3,2,6,0,-3
16:27:19.526257,1,0,4,-1,5,2,2,1
16:27:19.533249,-3,0,-3,-1,-5,-5,-2,-1
16:27:19.548242,-1,0,-1,-3,-2,-3,-1,-6
16:27:19.563231,-2,-1,-3,-3,-3,-5,-3,0
16:27:19.571227,-6,-4,-4,-3,-3,-3,6,-1
16:27:19.571227,-4,-1,1,-1,-2,1,-3,-2
16:27:19.593216,2,0,-2,-3,0,0,-1,1
16:27:19.594212,-3,-2,-5,-1,-1,-5,-12,-1
16:27:19.608203,1,-1,3,2,1,2,0,2
16:27:19.616202,-2,0,-5,-3,-1,-2,-3,0
16:27:19.631190,-1,-4,-4,0,2,7,0,-4
16:27:19.631190,-3,1,2,1,2,-2,-1,1
16:27:19.646181,-5,-2,-5,-1,-1,4,0,-3
16:27:19.653176,0,-4,1,-1,0,-1,1,1
16:27:19.676161,0,1,-3,1,0,0,-1,-4
16:27:19.676161,-2,0,-3,1,-1,-1,0,3
16:27:19.691152,1,-2,-4,1,-1,1,1,1
16:27:19.691152,-1,-1,-1,-2,0,-1,2,3
16:27:19.706146,2,0,1,-2,1,2,-2,1
16:27:19.713139,-2,0,-3,-3,2,-1,-3,0
16:27:19.728130,-2,3,3,3,-1,0,-1,0
16:27:19.736128,-1,0,0,2,5,0,0,0
16:27:19.751119,-2,-2,-2,-1,-4,1,-1,-1
16:27:19.752115,-2,-2,-1,0,-4,-1,-6,-4
16:27:19.766109,-1,-2,0,0,-1,-1,3,1
16:27:19.773103,-3,0,-2,1,6,-2,2,-3
16:27:19.788093,3,1,-2,-1,2,3,1,6
16:27:19.796091,1,-2,0,0,-2,-1,0,-3
16:27:19.818074,1,-1,0,-1,-1,-6,-2,0
16:27:19.819077,-4,-4,-2,-5,-3,4,21,2
16:27:19.826072,3,2,-1,1,5,0,-8,12
16:27:19.833066,-4,-2,-1,-3,0,1,7,-4
16:27:19.849059,-1,0,1,-1,-1,-1,-5,-4
16:27:19.856054,6,-3,-2,1,6,16,8,10
16:27:19.871045,-3,-1,0,-4,-6,-6,1,-3
16:27:19.872041,-1,-1,-1,2,2,-1,1,1
16:27:19.886035,0,-1,-4,-2,-1,-3,-3,-1
16:27:19.893031,-3,-2,-2,-1,-3,0,-1,-4
16:27:19.909018,3,3,2,3,4,2,-5,1
16:27:19.924009,-1,0,-1,-3,0,0,-1,6
16:27:19.931007,-2,-1,1,-1,3,2,-3,-1
16:27:19.932007,-2,0,2,1,1,-3,-2,-1
16:27:19.952992,-2,-1,-4,-3,-2,-1,-5,-1
16:27:19.953993,-3,-4,0,-1,-4,0,1,-3
16:27:19.975981,0,-1,-3,-3,1,2,2,-4
16:27:19.975981,-5,1,0,-1,0,2,4,0
16:27:19.990971,-1,2,1,-1,-5,1,-3,-1
16:27:19.998966,-1,-3,1,-1,-1,-1,0,2
16:27:20.005962,0,-1,0,0,-1,2,-1,-1
16:27:20.012957,-1,-2,1,-2,2,1,0,0
16:27:20.028944,0,-3,-1,1,-1,-1,0,-2
16:27:20.035943,-4,-4,-3,0,-1,-1,2,1
16:27:20.050934,0,1,-2,0,-3,0,-4,1
16:27:20.058929,0,1,2,1,0,-1,-2,1
16:27:20.065925,-2,-3,0,1,-2,0,-3,-4
16:27:20.073917,-2,-1,-1,1,1,-2,-1,-1
16:27:20.088907,-1,-3,0,-3,-3,0,-1,-3
16:27:20.095906,-2,1,-4,-3,-1,3,2,-1
16:27:20.110897,4,4,3,7,6,-1,3,4
16:27:20.118889,0,2,-2,-3,1,0,-1,-5
16:27:20.133881,-2,-1,3,-2,-4,-3,-1,-3
16:27:20.133881,0,3,-1,-2,0,1,-2,0
16:27:20.155869,-1,0,-1,-1,-1,-1,-2,0
16:27:20.156869,-4,-6,-4,-5,0,1,-2,0
16:27:20.170860,-4,-2,-1,-3,0,-3,0,-2
16:27:20.178855,1,0,-1,0,1,0,4,-1
16:27:20.193843,-2,-1,2,-2,1,-1,-2,-1
16:27:20.193843,-2,-3,-3,-2,-3,-1,-1,-2
16:27:20.215829,0,-1,1,-1,-1,-2,-1,1
16:27:20.216829,-6,-3,-1,-3,0,0,0,1
16:27:20.230823,3,3,4,6,8,1,8,4
16:27:20.238816,-6,0,-1,0,0,-2,0,0
16:27:20.253807,-1,0,-3,-1,-2,0,3,1
16:27:20.253807,0,-1,-1,-1,-1,-1,2,0
16:27:20.268798,-1,-3,-2,-3,-1,-3,10,-1
16:27:20.275796,-1,-2,-2,-1,1,-1,4,7
16:27:20.290786,-5,-1,1,-1,-1,-1,0,-8
16:27:20.298781,0,1,-6,0,1,-6,0,0
16:27:20.313769,-1,1,1,-2,-4,-6,-1,-1
16:27:20.313769,-3,-3,-2,-1,-3,-5,2,-5
16:27:20.328760,1,0,0,-3,-1,-3,-6,-1
16:27:20.343754,-4,1,-1,-3,-1,-3,0,-3
16:27:20.350748,-2,-3,-4,-3,-2,-3,-2,2
16:27:20.358745,-1,-1,2,-1,2,-1,3,0
16:27:20.373733,-2,0,-3,-2,-3,-4,-1,-3
16:27:20.374732,-1,-1,2,1,2,-1,1,1
16:27:20.395721,0,-3,-3,-5,-3,-2,-6,-3
16:27:20.396720,2,-4,-1,-1,3,5,11,1
16:27:20.410711,-4,-1,-2,1,-3,-4,-4,0
16:27:20.418708,4,2,1,0,-1,-2,0,1
16:27:20.433695,-1,5,-1,1,0,4,4,-3
16:27:20.433695,0,-1,0,-1,-2,-5,-2,-2
16:27:20.448689,-3,-3,-1,-2,0,-2,-1,0
16:27:20.455685,-3,-1,-1,-4,2,-1,2,-3
16:27:20.470673,1,0,1,-2,0,-5,-1,0
16:27:20.478671,-1,-1,-2,1,1,1,1,-2
16:27:20.493663,-2,-2,-2,-3,-1,-3,0,1
16:27:20.493663,-1,1,-1,0,-3,3,2,-3
16:27:20.508652,-4,-3,-3,-1,-1,-2,-3,-1
16:27:20.515645,-7,-3,-4,0,-2,-1,-5,-4
16:27:20.530638,-2,-1,-1,-3,0,0,-1,3
16:27:20.538634,1,-1,-1,-1,5,2,3,1
16:27:20.553625,1,-2,-1,-4,-3,-2,0,-3
16:27:20.553625,1,-1,-2,-2,-1,-2,0,0
16:27:20.568615,1,0,-2,0,-3,0,-1,-2
16:27:20.575609,-4,-1,-1,-4,2,-1,2,-1
16:27:20.590599,8,4,5,3,1,-3,5,5
16:27:20.606592,-3,-3,-1,-1,2,0,-1,0
16:27:20.613584,-1,-2,0,1,5,0,-1,2
16:27:20.613584,0,-1,2,-4,1,4,0,0
16:27:20.628579,-2,1,-2,0,0,0,-2,-1
16:27:20.635572,-1,-2,-3,-3,1,10,2,1
16:27:20.651564,-1,-4,0,-2,-5,-3,0,-2
16:27:20.658557,-4,0,0,1,1,-2,-1,1
16:27:20.673548,0,-1,0,0,0,0,6,4
16:27:20.674549,-1,-1,-4,-3,-3,-2,-2,-4
16:27:20.688541,-5,-2,0,-2,-1,1,9,-1
16:27:20.695538,2,-1,-1,-2,-3,-2,-3,0
16:27:20.710528,-2,-3,2,2,-5,-10,-4,-7
16:27:20.718523,-1,-3,-1,0,4,1,0,0
16:27:20.740507,-5,-2,2,-1,0,-2,0,-3
16:27:20.741506,1,-1,-1,-1,-3,3,-2,-1
16:27:20.756496,-1,-1,-1,-2,-2,-2,-7,-2
16:27:20.756496,-1,-4,-6,-2,-5,-1,-8,-5
16:27:20.771487,-1,-2,-3,1,1,7,8,6
16:27:20.778486,-7,0,-1,0,-1,7,-2,-5
16:27:20.793477,-4,-1,1,0,-1,-1,-2,-3
16:27:20.794473,-8,-5,-1,-5,-3,1,-3,-7
16:27:20.808468,-2,-1,1,0,-3,0,-2,-4
16:27:20.816460,1,-4,-5,0,0,1,1,2
16:27:20.831453,-2,-5,-2,-3,-3,-1,-12,-8
16:27:20.846441,-4,-1,0,-1,0,0,-4,2
16:27:20.853440,-2,-1,-1,-1,-4,3,8,7
16:27:20.854436,-2,-4,-2,-1,1,1,3,-4
16:27:20.868431,-1,0,3,0,5,1,1,0
16:27:20.876423,3,-2,1,-2,0,0,-1,4
16:27:20.891414,1,-1,2,-5,-5,3,4,-2
16:27:20.898412,-2,-4,0,0,0,-3,-3,-5
16:27:20.913401,-1,-1,-2,-4,-1,-1,3,4
16:27:20.914403,2,0,0,2,4,8,2,9
16:27:20.928394,-16,-3,4,3,-1,-3,-2,-7
16:27:20.936386,2,-3,-2,-3,-2,0,0,-6
16:27:20.951378,-3,-1,0,1,-4,-8,-13,-3
16:27:20.958375,-5,-2,-2,3,-1,1,1,-2
16:27:20.973366,1,2,-1,-3,-1,-1,6,-3
16:27:20.981358,1,-2,-2,-3,-1,1,3,3
16:27:20.988354,-2,-1,-1,-2,-3,-5,2,-1
16:27:20.996351,1,0,-1,-1,2,-4,1,2
16:27:21.011339,-5,0,-2,-1,-3,1,-14,-8
16:27:21.018338,8,-1,-2,-4,-4,9,26,20
16:27:21.033329,1,-1,2,2,0,0,3,5
16:27:21.041321,0,1,2,-1,4,3,2,1
16:27:21.063311,0,-1,-3,3,2,2,4,4
16:27:21.064308,-8,-1,-1,-1,-4,-5,-1,-1
16:27:21.071303,0,-2,0,-3,-2,-2,-1,-1
16:27:21.078301,-1,-3,-4,-2,-1,-3,6,1
16:27:21.093292,-6,-2,0,-1,2,-4,-3,-4
16:27:21.101285,-2,0,-1,-2,0,-2,-4,0
16:27:21.116275,-5,-3,0,-1,1,-3,-2,-2
16:27:21.116275,2,0,-3,-3,0,1,-1,1
16:27:21.131268,1,-1,0,-3,-1,-3,-8,4
16:27:21.138264,-3,-1,-1,0,-3,0,2,-10
16:27:21.153253,1,-2,-1,-3,-4,-6,-10,2
16:27:21.168245,-2,-3,0,-4,1,-2,-1,-2
16:27:21.176238,-3,-5,0,-2,-1,0,-1,-1
16:27:21.176238,-3,-1,1,0,2,-2,-1,0
16:27:21.198227,-6,-1,-1,-1,-1,-4,-4,-1
16:27:21.199224,1,0,3,3,-1,2,4,5
16:27:21.214215,-1,-2,1,-1,1,-3,-3,-5
16:27:21.221212,1,1,-3,-2,3,-2,-5,0
16:27:21.236201,-3,0,-2,0,-3,-2,-3,-2
16:27:21.236201,2,-5,-1,-1,-1,-2,-5,-7
16:27:21.251192,-1,2,-1,-18,-11,-1,-4,-4
16:27:21.258189,0,-4,-1,14,9,-2,-3,1
16:27:21.281174,-2,0,-1,2,7,-3,3,1
16:27:21.281174,-3,-1,-1,-4,-4,-11,-21,-6
16:27:21.296165,0,-2,-1,-3,-1,-3,-1,-3
16:27:21.296165,-1,-1,-2,-1,0,1,1,2
16:27:21.311158,0,-2,-3,2,2,1,1,-3
16:27:21.318152,-2,-2,-3,-1,0,0,0,-2
16:27:21.333142,-2,-1,-1,-4,-3,-2,-2,-3
16:27:21.341140,-3,-1,0,-2,2,-1,-9,-3
16:27:21.356131,-1,1,-1,-1,-1,-1,-2,-2
16:27:21.356131,0,0,-1,1,-1,-3,-1,1
16:27:21.378116,0,-1,3,0,1,0,-1,-1
16:27:21.379113,15,0,0,-3,0,2,-6,3
16:27:21.393107,-3,-2,-2,-1,-2,2,8,-1
16:27:21.401103,-1,-2,0,-4,3,-2,1,1
16:27:21.416094,0,2,-1,-3,3,1,0,1
16:27:21.417090,-2,-3,-4,-4,0,-3,-7,-4
16:27:21.431083,-8,-3,1,1,-2,-1,-3,-8
16:27:21.438078,1,1,-4,-1,0,-5,2,0
16:27:21.454070,-2,0,-1,-2,0,0,2,-1
16:27:21.461066,-4,-2,-3,1,0,-2,1,0
16:27:21.476059,-3,0,-2,-1,-5,-3,-2,-1
16:27:21.477056,-3,-3,0,-1,2,-3,-2,0
16:27:21.491047,4,-1,-2,-1,-4,1,0,1
16:27:21.506038,-5,-1,-1,-3,4,-2,1,-1
16:27:21.513035,2,-2,0,-1,0,0,-1,-2
16:27:21.521029,-4,-6,1,-1,2,0,6,0
16:27:21.536020,3,1,0,-2,-5,-1,-3,-2
16:27:21.537018,-1,-3,-1,2,0,6,-6,1
16:27:21.551011,-2,-4,-3,-3,0,-4,-1,-1
16:27:21.558006,2,0,-1,1,2,-1,6,-1
16:27:21.573995,-6,-4,-2,-1,-2,-7,2,0
16:27:21.588984,-1,0,-2,-4,-2,-1,0,-1
16:27:21.595983,1,1,-1,-2,1,-1,1,5
16:27:21.596981,1,0,-1,-1,-1,-1,4,-1
16:27:21.610974,3,1,0,3,-2,0,10,-1
16:27:21.618968,3,-1,-2,-1,3,2,7,4
16:27:21.633959,-4,1,0,0,0,-1,-7,0
16:27:21.640955,-2,0,0,1,4,2,4,2
16:27:21.655946,-2,-2,0,-2,-1,-2,-4,-4
16:27:21.656944,2,0,-3,2,2,2,15,6
16:27:21.670937,-1,0,3,8,4,-5,-13,-5
16:27:21.677933,-5,0,-1,2,3,0,-1,-4
16:27:21.693922,6,0,0,22,15,-4,7,-1
16:27:21.700918,-2,-3,-2,-1,2,-1,1,-3
16:27:21.715909,-3,-1,0,0,0,-1,7,2
16:27:21.723904,0,-1,-2,-15,0,2,-9,0
16:27:21.730899,-2,-3,2,9,6,1,1,-4
16:27:21.738893,-5,-3,0,1,2,0,0,-4
16:27:21.753883,3,0,2,-1,4,-1,4,3
16:27:21.760881,-6,0,-2,-6,-2,-1,4,-1
16:27:21.775872,4,-1,1,-1,-3,-5,-16,-2
16:27:21.783864,-3,-1,-3,-3,0,5,7,1
16:27:21.790863,0,2,-1,1,0,1,1,-2
16:27:21.798856,-4,-2,1,-3,-1,-2,-1,-1
16:27:21.813846,-4,-4,-1,-4,-2,-4,4,0
16:27:21.820844,0,-1,1,-2,-2,-3,-11,-2
16:27:21.835835,-6,-2,-3,-1,2,-3,-10,-4
16:27:21.843828,-2,-4,-4,0,-2,-2,-4,5
16:27:21.858820,-3,2,0,0,-2,-1,0,-1
16:27:21.858820,-1,0,-2,1,0,-2,-2,-1
16:27:21.873809,-3,-2,-2,-3,-2,-2,0,-1
16:27:21.880806,-4,-1,-2,-3,-1,-2,-4,-2
16:27:21.895798,6,0,-1,-2,-1,0,-3,0
16:27:21.903793,-5,0,0,0,-3,-8,0,-4
16:27:21.910789,1,-3,2,-2,-2,0,-7,-3
16:27:21.918784,-5,-4,-4,-4,-4,-3,-1,-4
16:27:21.933775,2,-3,0,-1,1,-1,1,-1
16:27:21.940771,-2,-2,-2,-1,1,4,-1,5
16:27:21.955761,1,-1,0,0,2,-3,4,2
16:27:21.963756,-11,0,-2,-2,-5,-1,6,-4
16:27:21.970752,0,0,-2,3,-2,-6,-8,-1
16:27:21.978746,-2,-2,-3,0,-1,5,0,-3
16:27:22.000734,2,1,1,1,-3,-1,-2,-4
16:27:22.001730,-1,-4,1,-3,0,-3,-4,2
16:27:22.015723,-5,0,-2,-3,1,1,5,1
16:27:22.030714,-3,-4,1,1,2,3,-17,-3
16:27:22.038707,0,-1,1,0,2,3,2,-1
16:27:22.038707,7,0,-3,0,0,3,4,8
16:27:22.053701,1,-1,-2,0,-2,2,-1,-1
16:27:22.060695,-2,0,-2,0,-1,-4,-7,-4
16:27:22.083682,1,-1,1,-1,5,8,7,5
16:27:22.083682,-4,1,-1,-2,-3,-10,-15,-5
16:27:22.098671,-7,-2,-1,-4,-2,0,-1,-4
16:27:22.105668,-5,1,0,-2,-1,1,3,-1
16:27:22.113664,3,0,0,1,-3,-3,-7,-2
16:27:22.120658,0,-2,-2,0,0,0,-9,-1
16:27:22.135647,-9,-6,-1,-1,1,-1,8,3
16:27:22.143647,-3,1,3,0,-1,-3,-2,-2
16:27:22.158637,1,1,-1,-3,-2,0,0,-2
16:27:22.158637,-6,-5,-1,-2,-1,-3,-4,-2
16:27:22.173627,0,0,0,-1,-1,0,-3,1
16:27:22.188618,-3,-2,0,2,2,3,1,3
16:27:22.195612,1,-3,-5,-4,-3,-4,4,1
16:27:22.203608,2,3,1,7,5,9,0,7
16:27:22.218596,-5,-4,-4,-2,-5,-1,6,0
16:27:22.219596,-5,-1,-1,3,9,-7,-12,0
16:27:22.233591,5,0,0,0,-6,-3,2,2
16:27:22.240584,-3,0,-1,0,2,0,1,0
16:27:22.255574,-1,-3,0,-5,-3,-2,-3,0
16:27:22.263572,-2,-1,-3,0,3,1,3,1
16:27:22.278563,-1,-2,-3,1,-2,-4,4,1
16:27:22.279561,-1,-1,-3,-5,-4,-1,-3,-2
16:27:22.293551,0,-1,-1,-1,2,-1,11,0
16:27:22.315537,0,-3,0,2,4,4,-3,1
16:27:22.316536,-7,-3,1,1,1,1,1,-5
16:27:22.323535,-2,0,-1,-1,0,1,-2,-2
16:27:22.338526,-4,2,0,-1,-1,-1,9,-1
16:27:22.339524,1,-1,-1,-1,-1,-5,-4,-5
16:27:22.353516,-1,-1,2,-3,0,-6,-4,-1
16:27:22.360509,-7,-2,-2,1,-3,1,3,-5
16:27:22.375503,4,3,1,0,0,7,2,8
16:27:22.391493,-3,-3,-2,-4,-1,1,-4,-2
16:27:22.398486,1,1,-1,-1,-1,-1,-3,-3
16:27:22.399489,-3,-1,-1,-1,-2,-1,0,-2
16:27:22.421472,0,-3,-2,-1,-3,-3,-4,-4
16:27:22.421472,8,0,-2,-2,-1,0,0,0
16:27:22.436467,-1,0,0,2,-2,-3,-3,-1
16:27:22.443461,-1,1,-2,1,3,0,2,0
16:27:22.458450,-2,2,-3,-4,-4,7,11,-1
16:27:22.459450,-1,0,1,-1,1,-2,-1,-1
16:27:22.480437,-2,-2,0,-1,-2,-1,-1,0
16:27:22.481435,1,-3,-3,0,-1,-1,0,-1
16:27:22.496425,0,-2,-1,-2,-2,-2,-2,-1
16:27:22.518417,3,1,-3,-3,0,-1,3,5
16:27:22.519412,-1,-1,-1,-4,-7,-2,2,-1
16:27:22.519412,2,3,3,-2,1,1,2,2
16:27:22.541398,2,-2,-2,-2,-2,-2,-1,1
16:27:22.541398,-3,-2,-2,-3,-1,-1,4,1
16:27:22.556391,0,-1,1,0,1,0,-3,1
16:27:22.563387,-1,-2,-2,-3,0,-1,-2,-1
16:27:22.578378,-2,-2,-1,0,5,2,1,-2
16:27:22.579377,-6,-1,-2,-4,-1,-2,-1,1
16:27:22.593369,2,3,2,1,3,6,4,3
16:27:22.601364,-1,0,-1,0,-7,-3,-2,-5
16:27:22.616355,-1,-1,-1,-2,-1,-1,-1,0
16:27:22.623350,-3,-1,-2,-1,-1,-1,-2,-1
16:27:22.638341,-5,-4,2,-1,-3,-3,-1,-2
16:27:22.639341,-5,-2,-5,2,0,5,2,-1
16:27:22.653332,2,2,0,2,-1,-2,3,-1
16:27:22.661324,-1,0,-1,1,-1,0,4,-2
16:27:22.676318,4,-6,-5,-1,0,0,2,4
16:27:22.683314,-1,-1,-2,1,-1,0,-6,-2
16:27:22.698304,-1,1,1,3,1,-3,-1,0
16:27:22.699301,0,0,2,-1,-4,3,5,0
16:27:22.721287,0,0,-1,-3,-3,2,2,-1
16:27:22.728286,-2,1,-5,3,-1,-5,-1,-2
16:27:22.736281,-1,-1,-3,1,-1,-2,-3,-1
16:27:22.743277,0,0,-1,-3,-3,1,-1,0
16:27:22.758267,0,-1,-1,-1,0,-1,0,0
16:27:22.759267,-3,-2,0,-1,-2,1,3,2
16:27:22.773258,-3,-4,-2,-2,2,-1,4,-3
16:27:22.781250,0,-3,-4,0,-6,-5,9,4
16:27:22.796244,1,1,3,4,4,0,7,0
16:27:22.803239,-3,-1,1,0,-1,3,-1,-1
16:27:22.818231,-3,-2,-1,0,-3,-3,6,-3
16:27:22.819230,0,1,-2,2,3,0,1,1
16:27:22.833220,-3,-2,-4,-2,-6,-3,-5,-5
16:27:22.841216,-1,-2,-5,0,1,8,9,3
16:27:22.856207,1,0,-3,-3,0,-1,-5,-2
16:27:22.863202,-2,-1,-3,-4,-1,-2,1,-6
16:27:22.878192,1,0,1,-2,1,2,6,-1
16:27:22.886189,-2,-4,-2,-1,-1,-2,-3,1
16:27:22.893184,-1,0,-2,-1,1,3,-1,0
16:27:22.901180,-2,-2,0,-1,-3,-1,1,3
16:27:22.916170,5,-3,-4,1,4,5,3,17
16:27:22.923163,-5,-1,-2,-2,-3,-3,-1,-6
16:27:22.938154,-2,0,-3,1,-4,-6,-4,-3
16:27:22.946152,-4,-3,0,-3,2,0,0,1
16:27:22.961140,0,-1,-3,-1,0,-1,-5,2
16:27:22.961140,1,-3,-1,-2,-1,4,4,4
16:27:22.976134,0,2,0,0,4,-1,2,2
16:27:22.983126,-1,0,-3,-2,-1,1,11,-1
16:27:23.006115,-3,-2,1,0,1,0,-2,-1
16:27:23.006115,3,3,1,-1,0,-1,6,4
16:27:23.021106,-2,-1,-1,-2,1,7,-1,-2
16:27:23.022105,0,-1,-1,-2,0,-4,1,-3
16:27:23.036096,-1,-4,-1,-2,1,0,0,-1
16:27:23.043090,-3,-2,0,-1,-2,-6,-11,1
16:27:23.058080,0,0,0,1,-2,3,-1,-1
16:27:23.066078,2,1,2,1,0,-2,0,1
16:27:23.081069,0,2,-3,-2,-1,0,7,3
16:27:23.081069,1,-1,-2,1,0,-2,0,1
16:27:23.096060,1,3,-2,-2,-1,0,-8,-6
16:27:23.104055,3,-3,2,-1,4,3,4,-1
16:27:23.119045,-4,1,-1,0,0,-8,1,-1
16:27:23.126038,-5,0,1,3,1,2,3,-2
16:27:23.141032,-3,-2,-5,1,1,-6,-11,1
16:27:23.142029,1,0,1,4,-1,4,2,-1
16:27:23.156022,-4,1,0,1,3,3,-6,-2
16:27:23.163018,6,1,-2,1,-1,1,-13,3
16:27:23.179007,-4,-1,-2,3,-3,-1,-4,-6
16:27:23.186004,-3,0,-1,1,1,3,-3,-6
16:27:23.200995,-4,-4,-3,-2,-6,-5,-6,-5
16:27:23.201994,7,-1,0,0,3,-2,-10,-1
16:27:23.223978,-2,0,-2,-2,-5,-3,-13,-6
16:27:23.223978,0,3,0,0,1,5,-1,-1
16:27:23.238968,6,-2,1,0,-4,-4,-5,-2
16:27:23.245967,-4,1,1,-2,-3,-1,3,4
16:27:23.260958,0,1,1,-1,1,6,-2,-3
16:27:23.261957,-1,-5,-4,-6,-5,1,3,-1
16:27:23.283941,3,-1,0,1,0,-4,-2,-1
16:27:23.283941,-1,1,-2,-1,1,6,8,0
16:27:23.298936,0,0,-2,-2,-3,-10,-21,-1
16:27:23.305930,0,-3,-4,-3,-4,-5,-7,-6
16:27:23.320921,-2,1,3,3,4,-1,1,3
16:27:23.321917,1,-1,-2,-2,-2,-2,1,2
16:27:23.335912,-3,-2,-1,-1,-3,-5,-3,-1
16:27:23.343904,-3,-1,-3,0,-1,1,-2,-2
16:27:23.358898,-2,0,0,0,2,4,4,-5
16:27:23.365893,-2,-1,-2,-3,2,0,-12,-5
16:27:23.380884,1,1,0,3,1,-5,-5,-3
16:27:23.381884,-1,-3,0,-3,-1,-1,3,-4
16:27:23.395875,0,0,1,1,0,-1,-1,1
16:27:23.403870,-6,-1,-3,-1,-1,-4,-4,-3
16:27:23.418858,-3,-2,-3,0,-2,1,-4,-4
16:27:23.425856,-5,-2,-2,-6,-4,-5,-2,0
16:27:23.440844,0,-2,-1,-1,-2,-6,1,-4
16:27:23.448840,-1,-5,0,-2,1,-4,-5,-4
16:27:23.455834,-4,-2,-1,-3,-2,0,1,-3
16:27:23.463830,-2,-2,-2,-1,0,-2,5,-1
16:27:23.478820,-2,-2,-4,2,-1,-3,0,2
16:27:23.485818,1,3,4,2,-1,-2,3,3
16:27:23.500810,-5,1,-2,-2,1,4,-10,-4
16:27:23.501808,-3,-3,-5,-1,1,3,1,-4
16:27:23.515801,-1,-2,-1,-1,-1,-5,-8,1
16:27:23.530789,-6,-2,-2,-1,-3,-1,2,-2
16:27:23.545783,-1,0,0,1,-1,-1,0,0
16:27:23.546782,-3,-1,-1,-2,-3,-6,-4,-3
16:27:23.560773,-5,0,0,0,0,-3,1,-1
16:27:23.561773,-2,-5,-3,3,0,-6,-1,0
16:27:23.575764,-7,-4,-5,-4,6,1,6,-1
16:27:23.583759,3,-1,-1,-1,-1,0,-4,-3
16:27:23.598750,1,-2,-1,-5,-1,-4,-10,-7
16:27:23.605743,0,-2,-2,-2,0,4,0,0
16:27:23.620736,-2,-4,0,2,0,-2,0,-2
16:27:23.621735,-2,-2,0,-2,-2,-2,-2,-3
16:27:23.635727,-3,-2,0,-1,1,1,-8,-3
16:27:23.650717,17,1,1,0,-2,-3,0,6
16:27:23.665709,3,2,-1,-1,0,4,13,19
16:27:23.666708,5,1,0,-1,-2,-1,0,0
16:27:23.680697,-3,-2,-2,-2,-3,-1,-1,6
16:27:23.681699,5,3,1,3,3,-2,-13,-1
16:27:23.695688,-4,-2,0,-3,-4,0,3,-2
16:27:23.703683,-4,-2,2,-2,-3,-1,5,-2
16:27:23.718673,-2,-1,0,-1,-2,-4,-4,-2
16:27:23.725669,-4,-5,2,0,-1,-2,-2,2
16:27:23.740663,-2,0,-2,2,-2,0,2,-3
16:27:23.741659,8,-2,1,-1,1,7,8,5
16:27:23.755650,1,-3,0,-1,-1,-2,-1,0
16:27:23.763648,-1,1,1,-1,2,0,-8,-3
16:27:23.778639,5,2,0,0,-2,4,19,19
16:27:23.785633,-3,-1,-1,0,1,-4,-5,-4
16:27:23.801622,-7,-3,-2,-2,0,-2,-9,-7
16:27:23.808621,-2,-3,-1,1,-3,-2,1,0
16:27:23.815613,-2,-2,-2,0,0,0,5,3
16:27:23.823612,0,0,0,0,2,-2,3,0
16:27:23.838602,-2,0,-2,0,3,0,-4,-2
16:27:23.845595,-3,0,-3,-1,-2,-3,-9,-1
16:27:23.868584,-1,-4,-2,-3,-3,-3,11,-1
16:27:23.868584,-3,-3,0,1,0,3,0,-4
16:27:23.875577,-1,-2,-3,-1,-2,-2,-1,-2
16:27:23.883575,3,-1,-2,0,1,-2,2,0
16:27:23.898565,-3,-2,-4,0,-4,-4,-3,0
16:27:23.905558,-3,0,0,0,-1,0,0,0
16:27:23.921548,-5,-2,0,2,0,0,-10,2
16:27:23.928547,-5,-4,0,-3,0,3,-5,-12
16:27:23.943538,-3,0,-1,0,-2,-3,-1,-3
16:27:23.944537,-2,-3,-2,-1,-2,-3,-5,-5
16:27:23.958529,-4,-2,0,-1,3,1,0,3
16:27:23.973519,-6,-1,-3,-1,-3,-3,-4,-5
16:27:23.981514,-2,3,-3,0,2,-10,-8,0
16:27:23.988510,-4,-1,1,-1,1,1,-3,-5
16:27:24.003501,1,0,-2,3,2,3,7,1
16:27:24.003501,-3,-2,-2,-5,0,0,-1,-2
16:27:24.025485,0,0,2,-1,0,2,3,-1
16:27:24.026486,-3,-3,-2,-2,-3,-6,-11,-1
16:27:24.041477,0,-1,2,1,2,2,0,1
16:27:24.048474,-5,-2,0,-3,-2,1,10,4
16:27:24.063464,-11,-3,-3,-1,-5,-2,-12,-8
16:27:24.064460,2,0,-2,-1,-2,1,3,0
16:27:24.078455,-1,1,2,4,1,0,0,-5
16:27:24.086447,2,3,0,0,2,-1,-1,1
16:27:24.108436,0,-2,-2,-3,-1,-3,-1,0
16:27:24.109433,-2,1,-1,-3,-1,0,-1,-2
16:27:24.123427,1,0,-2,-1,1,1,-1,1
16:27:24.124427,0,-4,-1,-2,-1,-1,-3,-2
16:27:24.138418,-1,-2,-3,-2,-3,-1,-1,-1
16:27:24.146410,1,-1,-3,2,3,0,12,0
16:27:24.161404,-4,-1,0,0,-2,0,-3,-8
16:27:24.168399,15,5,6,7,5,8,7,12
16:27:24.183390,-6,-1,-3,-4,-1,-2,-5,-3
16:27:24.184387,-2,-1,-2,-4,0,-5,-7,7
16:27:24.206372,0,-1,-5,-1,-4,3,-4,-4
16:27:24.206372,-3,-7,0,-4,-2,-2,-8,-4
16:27:24.221367,0,-1,0,0,0,3,17,13
16:27:24.228362,-4,-3,-4,-4,-2,-2,-4,-3
16:27:24.243353,0,1,2,-1,-1,2,0,-2
16:27:24.244352,-1,-3,-3,-1,-3,-2,-3,-1
16:27:24.258344,0,-3,-2,-1,3,-1,-1,-4
16:27:24.266339,1,-2,0,-1,-1,2,10,2
16:27:24.288325,-3,-2,-1,-2,-1,4,3,-2
16:27:24.289322,2,2,-1,0,0,-4,7,4
16:27:24.303316,1,-3,1,1,-5,1,-3,0
16:27:24.304315,-3,-4,0,0,-3,-4,0,-2
16:27:24.318304,1,-1,-1,0,2,2,1,2
16:27:24.326302,4,1,-2,1,-1,0,-2,-1
16:27:24.341293,-2,2,0,-1,-2,-2,-3,-1
16:27:24.363279,-1,2,-1,-1,1,4,1,-3
16:27:24.364278,-2,-1,-1,-1,-1,-2,2,-1
16:27:24.365275,-1,1,0,-1,1,5,1,2
