timestamp,emg1,emg2,emg3,emg4,emg5,emg6,emg7,emg8
18:59:17.905505,1,1,0,-2,0,3,2,3
18:59:17.923493,-1,1,-1,0,0,-1,0,-1
18:59:17.923493,0,0,-2,0,-1,-2,-3,-4
18:59:17.938483,-3,1,1,0,-3,1,-1,0
18:59:17.946478,-1,-3,2,-2,-1,-4,-1,1
18:59:17.961469,-2,-3,0,0,0,0,1,-1
18:59:17.961469,-2,-3,-3,-2,-1,-2,1,-2
18:59:17.983455,-1,0,-2,-3,1,0,1,3
18:59:17.983455,-1,-1,1,2,-1,0,-4,-2
18:59:18.005445,-4,0,-1,-1,-3,-1,-2,-2
18:59:18.006440,0,-2,1,1,-2,-1,-1,-3
18:59:18.020435,0,-4,0,-3,-2,-2,-2,0
18:59:18.021432,-3,-3,-2,-1,1,1,0,1
18:59:18.043420,2,-4,2,0,-2,3,1,-1
18:59:18.044419,1,1,-3,-2,0,-2,-2,-2
18:59:18.065407,1,0,-1,-1,1,-1,-2,-2
18:59:18.066405,0,1,0,3,-4,-3,-2,-1
18:59:18.080397,-1,-3,-4,-2,-3,0,1,1
18:59:18.081407,-1,-3,-3,-2,-4,-3,-1,-1
18:59:18.103381,-2,-1,0,0,-3,0,-1,1
18:59:18.104381,1,-2,-4,-2,0,1,-1,-1
18:59:18.126371,1,-1,-2,-1,-1,-4,2,-1
18:59:18.126371,0,0,2,0,-1,-5,-3,-1
18:59:18.141357,4,-1,-1,-5,-2,0,-2,0
18:59:18.141357,0,-3,-3,-5,-1,0,-3,-3
18:59:18.163343,-1,0,0,-1,-1,-2,-3,2
18:59:18.163343,-1,1,-2,0,1,-3,0,1
18:59:18.185352,-1,-1,-3,-1,-3,0,-1,2
18:59:18.186330,0,-2,-2,0,-4,0,1,-4
18:59:18.200323,-1,1,4,-2,-2,0,-1,-1
18:59:18.201319,-2,0,-3,-2,-1,-2,-3,2
18:59:18.223305,0,-1,-2,-2,-2,2,-2,-1
18:59:18.224306,4,3,2,4,1,3,2,1
18:59:18.246292,0,0,-1,0,-2,-2,-1,-3
18:59:18.246292,-5,1,-2,-2,-4,-2,0,-4
18:59:18.261282,-1,-1,-1,-1,-2,-1,-1,-1
18:59:18.261282,1,2,1,4,5,-3,-1,2
18:59:18.283269,-2,-4,-4,-3,-3,2,0,-1
18:59:18.284269,-2,1,1,-1,-2,-2,2,-2
18:59:18.306254,0,-3,0,1,-2,-2,1,-2
18:59:18.306254,-1,0,-2,0,-2,-2,-1,0
18:59:18.321253,-2,-1,-2,2,0,1,-3,-1
18:59:18.328243,0,-5,-4,-2,-6,-2,-1,-2
18:59:18.343232,-2,1,-3,-3,-5,1,-1,-2
18:59:18.344231,-1,1,0,-2,1,1,3,1
18:59:18.366218,-1,-2,0,1,1,-3,-2,-2
18:59:18.366218,-5,-1,-2,-2,-1,-4,1,-2
18:59:18.381208,-3,1,0,-1,-1,0,-2,0
18:59:18.388207,-2,-4,-3,-1,2,-3,0,-2
18:59:18.403194,0,-1,-3,1,-2,2,0,0
18:59:18.404194,0,2,-1,3,3,-1,0,-1
18:59:18.426180,-2,-4,-2,-1,-2,-1,-1,0
18:59:18.427181,1,0,0,1,2,-1,2,-1
18:59:18.443173,0,-3,0,-2,-1,-2,-2,1
18:59:18.449166,-1,2,-2,-1,-1,-1,-5,-3
18:59:18.463157,-1,-1,-1,1,-5,-3,-2,2
18:59:18.464157,1,-1,-1,1,1,-3,-2,-2
18:59:18.486144,-1,2,0,0,-1,-1,1,-1
18:59:18.486144,-2,-1,3,2,0,0,0,0
18:59:18.508128,0,-1,0,-2,0,0,0,-1
18:59:18.510129,-2,-2,0,1,-3,-3,0,-1
18:59:18.523135,-2,-2,0,0,1,-1,2,-1
18:59:18.524120,-1,-1,-3,-2,-1,-2,0,2
18:59:18.546107,-2,-1,0,1,0,-2,-1,-2
18:59:18.546107,-1,-4,1,-1,1,-6,-2,0
18:59:18.561097,0,-3,-3,-1,-5,-2,1,0
18:59:18.568095,-2,-4,-2,1,1,-2,-3,0
18:59:18.583131,0,3,1,2,1,2,0,0
18:59:18.584082,-1,-1,1,1,-4,0,-1,2
18:59:18.606069,0,-2,-3,-1,-3,-3,3,0
18:59:18.606069,0,0,-4,-1,-4,-1,0,1
18:59:18.621060,-1,-2,-1,0,-2,0,-3,-3
18:59:18.629055,-3,-5,-1,-1,0,1,0,-1
18:59:18.651042,-2,-4,-8,-3,-2,0,-3,3
18:59:18.651042,0,-1,0,-4,-3,-5,-1,-1
18:59:18.666032,1,1,1,1,0,-3,0,1
18:59:18.666032,-1,-1,0,1,-1,-3,0,-4
18:59:18.681023,-4,0,1,1,3,1,-1,1
18:59:18.688026,-1,1,0,-1,0,-2,0,2
18:59:18.703011,-1,0,0,1,0,-1,-3,-5
18:59:18.704011,2,0,2,0,-4,-1,-2,-1
18:59:18.725996,0,2,-3,1,-4,-2,-1,-1
18:59:18.726994,-1,0,-1,-1,0,0,0,3
18:59:18.740993,0,-1,-1,-4,1,0,0,-2
18:59:18.748980,-3,0,0,2,0,2,-1,-2
18:59:18.762974,-3,-1,0,-4,-1,3,1,-1
18:59:18.763989,-5,-2,-1,-1,1,1,-2,-1
18:59:18.785958,-1,2,-1,-3,1,-4,1,0
18:59:18.785958,1,-4,-3,-4,-6,-2,-3,0
18:59:18.800948,1,-1,-2,1,1,4,-3,0
18:59:18.808943,1,-1,0,-4,-2,-1,0,-1
18:59:18.822937,-2,2,1,0,-3,2,0,4
18:59:18.823935,-2,0,-1,1,-1,-3,-1,-6
18:59:18.845919,-1,0,-1,-1,0,0,-3,0
18:59:18.845919,-1,-1,0,-2,-1,0,-1,0
18:59:18.860911,-2,0,0,0,3,3,2,0
18:59:18.875901,-3,0,-2,-1,0,-1,-1,1
18:59:18.882943,2,0,0,1,-1,-3,0,-1
18:59:18.883896,1,0,-2,-3,-3,-3,-3,-1
18:59:18.905884,-2,-2,-1,0,-1,-2,-5,-3
18:59:18.906882,1,0,-4,0,-3,0,2,-2
18:59:18.927869,0,0,-5,-1,-1,-2,-2,-3
18:59:18.928868,-4,-1,-2,-4,-3,2,0,-1
18:59:18.943859,1,-1,1,-1,-2,-2,0,0
18:59:18.943859,-1,-1,-1,0,-3,-3,-5,0
18:59:18.965846,-4,0,2,-2,-1,-4,1,-2
18:59:18.966844,-3,0,-3,0,-3,-2,-1,0
18:59:18.987846,-1,-1,-1,-3,0,1,2,-3
18:59:18.988832,-3,0,-4,-2,1,-3,-1,-1
18:59:19.002822,2,-1,0,2,3,-1,-4,0
18:59:19.003824,0,-4,-2,-1,-2,1,3,2
18:59:19.025808,0,2,0,-3,-2,1,0,-2
18:59:19.026808,-2,-1,0,0,0,-1,0,-2
18:59:19.048795,1,-2,0,-3,-5,1,-1,2
18:59:19.048795,-1,-1,0,-1,-3,-3,-1,2
18:59:19.063789,-2,0,2,1,-1,-2,0,-1
18:59:19.063789,-2,0,-1,0,1,1,-2,-1
18:59:19.085771,0,1,-3,3,-3,-4,-1,2
18:59:19.086770,1,-2,0,-1,-3,-2,-5,-3
18:59:19.108769,-1,-1,-4,-2,-3,-3,-2,-1
18:59:19.108769,2,1,2,1,2,-3,-1,-1
18:59:19.123748,-1,-2,0,-2,5,0,0,0
18:59:19.123748,-1,-3,-3,-2,-3,-3,-3,-1
18:59:19.145734,0,0,0,-2,-3,1,-3,-1
18:59:19.146734,-2,-2,-2,-1,-2,-3,-2,-3
18:59:19.168720,1,0,-1,-2,1,-3,0,-3
18:59:19.168720,1,-2,-2,0,-2,-2,-3,-3
18:59:19.183710,0,1,2,6,5,-2,0,0
18:59:19.183710,-2,-2,-4,-2,-1,-1,0,0
18:59:19.205696,-1,2,1,1,1,0,-1,-4
18:59:19.206697,2,-2,-1,0,1,0,1,-2
18:59:19.228682,-3,0,-1,-3,3,0,1,2
18:59:19.228682,-4,-3,-3,-1,-4,-4,-2,-2
18:59:19.243674,2,-3,1,-1,-3,-1,0,0
18:59:19.250672,-1,1,0,-3,-1,-1,-1,0
18:59:19.265660,0,-2,0,-2,-1,-2,1,-1
18:59:19.266659,1,1,1,-1,2,-1,0,-1
18:59:19.289644,-1,-2,-3,-2,-3,-2,-2,-1
18:59:19.290644,-2,-1,1,2,-1,-3,-4,0
18:59:19.303636,-2,-2,-3,-4,-5,-2,-2,0
18:59:19.311632,2,0,2,-2,-3,-1,0,0
18:59:19.330619,-1,-1,-1,-1,-2,0,-1,0
18:59:19.334617,0,0,1,0,-1,0,-1,-2
18:59:19.348608,0,-2,0,-1,-4,-2,-2,1
18:59:19.348608,-1,-4,-3,2,0,1,0,-1
18:59:19.363599,-3,-2,0,-1,-4,0,-2,-4
18:59:19.370594,-3,-3,-2,-2,-2,-1,-1,-4
18:59:19.385585,-1,-4,-3,0,-1,-2,-1,1
18:59:19.386585,1,1,-1,-3,2,3,1,-1
18:59:19.408571,-4,1,-2,0,-3,-4,0,-6
18:59:19.408571,1,-2,-1,0,-1,0,0,-1
18:59:19.423562,0,1,-1,0,-1,-3,-2,0
18:59:19.430558,1,0,0,-2,-4,0,0,0
18:59:19.445550,-1,1,-2,-1,-2,1,2,2
18:59:19.446547,-1,-2,-2,-4,1,-2,0,-1
18:59:19.468535,1,0,-1,-1,1,-4,-2,-3
18:59:19.475530,-1,-3,1,1,-2,-1,-1,-1
18:59:19.483524,2,0,-2,0,-1,-1,-1,-2
18:59:19.490522,-3,-3,-3,-1,-2,-2,-2,-4
18:59:19.505514,1,0,-1,2,2,0,1,3
18:59:19.506510,1,0,-2,0,-2,-1,-1,2
18:59:19.528498,0,-1,2,1,-3,-3,1,0
18:59:19.528498,0,0,-2,-2,-1,1,0,0
18:59:19.543487,0,-1,-1,3,0,0,-1,2
18:59:19.550485,-2,0,0,-2,0,0,0,-1
18:59:19.566481,2,0,1,5,-3,-8,-2,0
18:59:19.566481,1,-1,-1,-1,1,-4,-4,0
18:59:19.588460,-2,-1,-1,2,-1,-2,-2,-3
18:59:19.588460,1,-1,-1,-3,-1,-3,-1,0
18:59:19.611446,-2,0,-3,1,1,-2,-1,2
18:59:19.611446,0,-1,-1,0,0,1,0,2
18:59:19.626436,-2,-3,-4,-2,0,-1,-1,2
18:59:19.626436,-3,-3,0,-2,-1,-3,0,0
18:59:19.648424,0,2,-1,0,0,-3,0,-3
18:59:19.649422,-3,-3,-3,-2,0,-2,-2,-3
18:59:19.663413,-1,0,-2,-2,1,-1,-3,2
18:59:19.671412,-1,-1,-2,0,-3,-1,-1,-3
18:59:19.687400,-4,2,-3,-2,1,-1,-2,-2
18:59:19.687400,2,0,-1,0,-1,1,-1,-1
18:59:19.708388,1,0,-1,1,0,-3,-1,-2
18:59:19.709385,-2,-3,-1,-2,-3,-1,0,-4
18:59:19.724375,-2,-2,-1,-3,0,-1,-1,0
18:59:19.731373,-3,0,-1,-4,-1,-1,-4,0
18:59:19.746364,-2,0,0,2,-4,-2,0,0
18:59:19.746364,0,-6,-3,0,-1,-2,1,1
18:59:19.768350,1,0,-2,-1,1,2,1,1
18:59:19.769350,-1,-2,-2,1,-1,-1,-1,0
18:59:19.784338,-2,0,-2,-1,0,-3,-1,-1
18:59:19.791337,-1,0,1,-2,1,-1,1,0
18:59:19.806328,-1,0,-1,-2,-3,-1,-1,-2
18:59:19.806328,0,-2,-5,2,-1,0,0,1
18:59:19.829311,-1,2,0,1,-1,0,3,2
18:59:19.829311,-1,-3,0,1,2,1,-2,0
18:59:19.844301,1,-1,0,0,-1,-2,-1,-3
18:59:19.851300,0,0,1,-1,-1,-2,-1,4
18:59:19.866290,-2,1,1,1,2,-3,-2,-1
18:59:19.867287,3,3,1,1,-2,1,0,-1
18:59:19.888274,-1,-1,0,-2,-1,2,-3,-2
18:59:19.889274,-2,1,2,1,0,-5,-2,0
18:59:19.911262,-1,1,-1,2,1,-1,2,0
18:59:19.912262,-2,-2,-2,1,0,0,0,-1
18:59:19.926253,1,2,-1,1,-1,0,-1,-1
18:59:19.927251,2,1,-1,-2,0,-1,0,-1
18:59:19.949236,-2,-2,0,-2,-4,-3,1,0
18:59:19.949236,1,-1,1,-1,0,1,-1,0
18:59:19.979218,-1,-1,-1,-1,0,-3,-1,-2
18:59:19.979218,-2,1,0,-2,-1,-2,-3,0
18:59:19.987212,-1,-1,-4,-2,-6,-4,-3,-3
18:59:19.987212,-3,-2,-2,-1,2,-1,-1,-1
18:59:20.009198,-4,1,-2,-2,-5,-1,2,-1
18:59:20.009198,-1,2,-3,-4,-1,-3,-2,-1
18:59:20.031185,2,-2,0,-1,-1,-1,-1,0
18:59:20.032187,-1,-1,-2,-1,0,0,-2,-1
18:59:20.048177,0,1,-1,-2,1,-1,-1,-3
18:59:20.048177,-1,1,2,-3,-3,-2,-3,2
18:59:20.069162,-3,0,-2,-3,-1,-1,-3,-1
18:59:20.069162,2,1,2,4,4,0,2,2
18:59:20.091148,-2,0,0,-3,1,-1,-1,0
18:59:20.092147,1,1,0,2,0,2,4,0
18:59:20.106142,0,-1,-3,-4,2,-2,-2,-3
18:59:20.107140,0,-2,1,-1,-1,-2,2,3
18:59:20.129124,-1,-2,2,-4,-2,0,-1,1
18:59:20.129124,-1,-2,0,0,0,-2,-1,-1
18:59:20.151111,0,-1,-1,-3,1,-1,0,-3
18:59:20.152110,0,-3,-1,0,-1,1,1,-1
18:59:20.166104,-2,0,-3,0,-1,-3,0,-1
18:59:20.174096,0,0,0,1,0,1,-1,-3
18:59:20.189087,1,1,-2,-2,-1,-1,0,-1
18:59:20.189087,-1,0,-2,0,-3,1,2,-2
18:59:20.211076,-2,-3,-1,1,-2,-5,-3,0
18:59:20.212073,0,-1,0,-3,-1,-3,0,0
18:59:20.226066,2,1,2,0,1,0,4,2
18:59:20.234062,0,-3,-2,-3,-5,-4,-1,-4
18:59:20.249052,-2,-4,-1,-3,-5,-2,-1,-4
18:59:20.249052,-1,-4,-1,0,-1,0,-3,2
18:59:20.271039,-1,-3,-1,-1,-2,-2,0,-2
18:59:20.272039,-2,0,-1,1,-2,-1,-2,1
18:59:20.286027,-4,-3,-2,-2,-3,2,-1,-3
18:59:20.294022,0,0,0,1,0,-1,-1,2
18:59:20.309013,-1,-2,-1,-1,0,2,0,-2
18:59:20.309013,-4,-3,-1,0,-3,-1,0,3
18:59:20.331002,-3,1,-3,0,0,-3,-1,-3
18:59:20.331999,0,0,1,1,-2,-5,1,4
18:59:20.345992,-1,0,0,-1,-4,0,-3,0
18:59:20.353986,-1,-1,-1,-2,0,-5,0,-3
18:59:20.368976,1,1,-2,-3,0,-3,-2,-1
18:59:20.368976,-1,-1,-1,-2,-3,1,-2,0
18:59:20.390962,-3,-2,-4,0,-3,-1,-1,-1
18:59:20.391965,-3,-2,-2,-1,-1,-1,-2,-2
18:59:20.413953,-1,0,0,-2,1,0,-3,-1
18:59:20.414950,0,0,0,1,-2,-3,-1,-1
18:59:20.428940,-2,-1,1,-1,0,0,1,0
18:59:20.429938,-1,-3,0,0,-5,-3,-3,-1
18:59:20.450928,0,1,1,0,1,4,1,-3
18:59:20.451924,1,-1,-2,-2,-2,-1,-4,-1
18:59:20.466916,-1,-3,2,-1,-4,0,0,1
18:59:20.473914,-2,-3,-2,-3,1,-1,-4,-3
18:59:20.488903,-1,4,1,2,2,1,-4,-4
18:59:20.488903,-1,0,2,0,-3,-2,-1,-3
18:59:20.510890,-2,1,1,-3,0,1,2,1
18:59:20.511887,-3,2,1,-2,1,0,0,0
18:59:20.525878,-1,1,0,-1,1,3,0,-1
18:59:20.533877,-1,-1,1,-4,-3,-1,-1,-1
18:59:20.548867,-1,3,1,-2,1,-3,0,2
18:59:20.549863,-1,-5,-4,-1,-2,-2,-2,-4
18:59:20.571851,-2,0,-3,-2,0,-2,2,2
18:59:20.571851,1,0,1,4,2,-1,-1,1
18:59:20.586840,0,-3,-1,-2,-1,-2,-3,-3
18:59:20.593839,-4,-2,-3,-2,-4,1,-1,-2
18:59:20.608830,-3,0,0,1,1,2,-4,-3
18:59:20.615825,-1,-1,-1,1,0,0,-1,-1
18:59:20.630816,-1,0,-3,1,3,-1,1,-1
18:59:20.631814,-1,0,-1,1,-2,-1,-3,-4
18:59:20.646803,-4,-3,-1,-4,-2,-2,0,-3
18:59:20.653802,-6,0,-2,0,0,0,0,-2
18:59:20.668790,-3,-3,-3,-1,0,1,-1,-1
18:59:20.668790,1,2,0,0,0,1,1,1
18:59:20.690776,-2,-3,1,-4,0,1,2,0
18:59:20.691776,-2,-2,-1,-1,-2,0,2,0
18:59:20.713762,2,-2,-2,-4,-3,-4,-2,0
18:59:20.713762,2,-1,3,2,2,-1,1,3
18:59:20.728753,-1,-3,-2,-2,-1,-3,-3,-5
18:59:20.729754,-1,-1,-3,0,-5,0,1,-1
18:59:20.750739,1,-1,-1,0,0,-1,0,-1
18:59:20.751738,0,-4,-2,-2,-3,0,0,-2
18:59:20.766729,0,2,0,0,-1,0,-5,-2
18:59:20.773728,-2,-1,-3,-1,-3,-2,-1,-1
18:59:20.814700,-1,1,0,0,3,-3,-2,-2
18:59:20.814700,-3,3,2,1,0,-3,-1,-3
18:59:20.814700,0,1,-3,-2,0,-2,-3,0
18:59:20.815699,-2,-2,-3,-3,-4,-4,-1,-1
18:59:20.836685,-3,-1,-1,-2,1,1,-4,0
18:59:20.837684,1,1,3,2,1,1,-1,1
18:59:20.848678,1,1,3,-1,2,3,0,2
18:59:20.848678,-3,-3,-4,1,-4,-1,-3,-1
18:59:20.870663,-2,2,0,-2,0,2,3,-3
18:59:20.871664,-2,-4,-1,-2,-1,0,0,0
18:59:20.893650,0,-4,0,-1,-7,-2,-2,1
18:59:20.893650,-3,-2,-1,0,-1,0,-2,1
18:59:20.908640,0,-4,0,0,0,0,1,1
18:59:20.908640,-3,-2,-1,1,-2,1,1,0
18:59:20.930627,-1,-2,0,-3,1,-1,0,-2
18:59:20.931626,-1,-1,-1,-2,-1,-1,2,1
18:59:20.953614,-1,-3,0,1,3,1,-1,-1
18:59:20.953614,0,-1,2,0,-4,-5,0,-2
18:59:20.968605,3,-2,1,2,2,-3,0,4
18:59:20.968605,-1,-1,-2,-3,0,3,-1,1
18:59:20.990616,-3,-4,-1,-7,-46,-1,-2,-2
18:59:20.991590,0,-2,2,2,6,-2,-1,1
18:59:21.013576,0,-1,-1,-1,-3,1,-1,-2
18:59:21.014575,2,-4,-4,1,-2,-3,-2,-1
18:59:21.028566,2,-2,-1,-2,-2,0,-1,-1
18:59:21.043567,0,2,-1,1,-2,2,-2,3
18:59:21.050552,1,3,0,0,1,2,-3,4
18:59:21.051552,-3,-3,0,0,0,-1,-4,-2
18:59:21.080535,0,-1,-1,-6,-2,0,-2,-3
18:59:21.081534,-2,0,-1,-20,-10,-5,-3,1
18:59:21.088529,0,-1,0,10,3,-3,-1,-2
18:59:21.088529,0,1,-3,-4,-40,1,-4,-1
18:59:21.110515,-2,-4,0,0,7,-2,-1,-2
18:59:21.111516,-1,-5,-6,-2,0,-3,-2,0
18:59:21.134501,0,-1,-2,-5,-5,-4,-4,-1
18:59:21.134501,-1,2,-2,2,-1,-1,-3,-1
18:59:21.148492,0,-3,-3,1,3,3,-1,-3
18:59:21.156486,1,-1,1,-2,0,-5,-3,0
18:59:21.170479,-5,-4,-6,-2,-3,-1,-3,-4
18:59:21.171477,-2,-2,-3,13,0,-1,-1,1
18:59:21.193464,-1,-2,-2,-2,2,2,-2,1
18:59:21.193464,-1,-3,1,9,1,-3,0,-2
18:59:21.216454,-1,-1,-1,0,2,0,-3,1
18:59:21.216454,1,-1,-4,3,0,1,-1,-1
18:59:21.231443,-4,-2,0,6,33,-4,-2,-1
18:59:21.231443,5,2,3,-3,-7,-1,0,-1
18:59:21.253428,-1,-2,-4,1,3,0,-2,0
18:59:21.253428,-1,-3,1,1,1,-1,-1,0
18:59:21.276417,0,-1,-4,-21,-13,2,2,2
18:59:21.276417,0,-3,0,17,10,1,2,-2
18:59:21.290406,-1,-2,2,4,1,0,2,0
18:59:21.291409,2,0,2,-1,2,1,3,3
18:59:21.313392,1,0,-2,-2,2,-1,0,0
18:59:21.314397,0,3,1,10,6,-3,-1,-3
18:59:21.335378,2,2,1,-4,2,0,-1,-1
18:59:21.336376,-2,-3,-1,4,-4,-1,-4,-2
18:59:21.350367,0,-1,-3,-11,-1,1,-3,-1
18:59:21.351367,-2,1,5,14,5,-3,-5,-4
18:59:21.401335,-1,1,-3,10,17,-1,1,1
18:59:21.401335,0,-1,0,-5,4,2,1,-1
18:59:21.402334,0,0,-7,-14,0,4,2,3
18:59:21.402334,-2,2,3,2,8,-5,-6,-3
18:59:21.411332,-4,0,4,4,-76,-4,-1,-6
18:59:21.412330,3,3,0,5,19,2,1,3
18:59:21.433323,-2,-3,2,-6,14,6,1,-3
18:59:21.434315,3,1,4,28,7,7,1,1
18:59:21.456301,4,12,3,31,-32,-8,2,4
18:59:21.456301,8,17,34,-29,-8,19,9,7
18:59:21.470293,-5,-9,-3,26,127,-24,-6,-3
18:59:21.471292,18,29,39,-28,6,127,21,17
18:59:21.493277,8,23,16,-18,109,-85,2,2
18:59:21.494278,16,5,52,104,127,-83,8,13
18:59:21.516265,5,38,28,37,127,127,13,9
18:59:21.516265,-12,-55,-89,-12,127,-128,-12,-7
18:59:21.530258,-15,-38,-42,-128,-128,-128,-30,-17
18:59:21.531255,3,16,19,-8,125,127,10,16
18:59:21.553240,-36,-29,-46,-53,39,-37,-28,-14
18:59:21.554241,35,37,38,-5,-128,71,46,20
18:59:21.576226,-55,-86,-32,-101,127,-8,-51,-39
18:59:21.576226,-31,-22,36,-60,-128,31,-8,-7
18:59:21.591217,56,122,116,2,-54,19,39,26
18:59:21.591217,25,50,-23,-128,-128,-76,16,5
18:59:21.614204,8,-4,107,127,127,127,3,-9
18:59:21.614204,-34,-54,-66,-74,127,127,-13,-11
18:59:21.636190,-19,-46,-58,-128,-128,-128,-17,6
18:59:21.637192,15,31,-6,25,127,108,16,1
18:59:21.651184,39,108,127,-107,-128,-81,7,18
18:59:21.652180,-40,-128,-128,54,-119,94,-18,-13
18:59:21.673167,57,127,127,127,127,127,40,29
18:59:21.674166,-5,-76,-125,-128,-116,-128,-5,1
18:59:21.696155,23,127,127,127,-128,127,-3,-4
18:59:21.697152,-26,-97,-128,-128,-128,-128,-58,-15
18:59:21.711145,-45,-50,-4,-128,-128,-17,-45,-28
18:59:21.712143,36,55,35,88,-128,-128,-94,2
18:59:21.741127,0,91,127,127,-128,-128,22,6
18:59:21.742127,-15,-67,-101,127,37,-128,-13,-3
18:59:21.756118,-12,13,-39,127,127,127,25,-30
18:59:21.757117,-30,-84,-88,-128,-128,127,9,2
18:59:21.771109,3,98,114,-68,127,9,-7,-19
18:59:21.772106,-44,-128,-126,39,-128,115,13,-11
18:59:21.793093,38,48,62,127,127,127,32,18
18:59:21.794092,19,-14,47,127,127,127,41,26
18:59:21.816078,47,103,75,38,127,127,14,29
18:59:21.817079,4,-77,-118,-60,127,127,21,15
18:59:21.831069,56,127,127,127,127,-32,-3,18
18:59:21.832071,-25,-128,-124,127,127,127,20,-2
18:59:21.854056,15,-26,-57,-128,127,122,5,19
18:59:21.854056,-13,-45,-19,127,-49,54,17,-2
18:59:21.876043,27,127,127,127,127,-128,-19,-5
18:59:21.877040,35,62,-13,88,-107,-78,33,30
18:59:21.891032,-34,-79,-103,-128,-128,-128,-30,-21
18:59:21.899030,-56,-128,-91,85,-90,-9,-15,-21
18:59:21.914019,27,52,45,46,127,34,7,16
18:59:21.914019,27,15,14,-24,127,91,13,17
18:59:21.943999,-14,-18,-15,-84,127,127,15,-10
18:59:21.943999,8,19,23,54,86,-13,15,7
18:59:21.950998,18,75,103,119,107,50,10,2
18:59:21.951994,8,-25,-54,-86,127,127,30,8
18:59:21.973980,2,-1,-33,-111,-128,26,0,2
18:59:21.973980,6,24,24,-128,0,-62,-2,-2
18:59:21.995969,-1,10,18,127,61,6,2,-1
18:59:21.996969,1,6,5,-24,-128,-37,-18,-4
18:59:22.010959,-1,-21,15,127,-43,37,-5,-4
18:59:22.011956,10,15,5,-128,9,-64,-3,4
18:59:22.033943,3,8,6,44,-10,23,6,-2
18:59:22.033943,20,77,99,-69,-128,-25,2,6
18:59:22.055931,-6,2,60,127,109,-128,-14,-6
18:59:22.056932,13,29,-15,-128,-128,-97,-5,2
18:59:22.070923,-1,2,-13,-36,-97,-77,-13,-4
18:59:22.071921,3,4,5,-46,-58,50,8,6
18:59:22.093906,2,-18,-7,127,-8,92,1,2
18:59:22.093906,5,22,18,-41,-126,-54,0,4
18:59:22.115895,7,18,21,68,127,127,15,0
18:59:22.116893,9,-2,-5,-22,-26,7,-3,6
18:59:22.131882,28,49,52,87,80,-16,9,14
18:59:22.131882,-12,-23,-6,99,45,127,13,-2
18:59:22.153868,10,18,5,-22,-128,-72,-2,5
18:59:22.154867,-7,-35,-41,86,127,127,20,1
18:59:22.183853,1,4,-12,-125,-54,-66,-7,-1
18:59:22.184850,14,25,36,14,65,5,5,3
18:59:22.190849,-3,-11,-22,-58,-85,-33,-6,1
18:59:22.191845,7,15,19,-37,59,125,7,4
18:59:22.213835,-8,-41,-50,23,-89,-4,-10,-3
18:59:22.213835,3,23,17,-74,-47,-18,0,4
18:59:22.236820,6,8,1,26,2,-32,2,3
18:59:22.236820,-2,7,13,21,122,103,3,-6
18:59:22.250809,14,32,54,121,127,63,12,9
18:59:22.251808,-4,-7,-22,-59,-87,-13,-4,-1
18:59:22.273797,-1,-3,-3,-9,18,12,1,-2
18:59:22.274795,-16,-43,-53,-35,-43,-62,-13,-9
18:59:22.296782,5,8,5,6,15,10,5,4
18:59:22.296782,-5,-16,-36,-36,-8,-6,3,1
18:59:22.318769,0,-4,-14,-16,-14,-20,-5,0
18:59:22.319771,-6,-7,-8,-5,-5,-1,-4,-2
18:59:22.333757,0,5,11,11,8,7,1,0
18:59:22.333757,-1,-6,-1,25,22,9,-2,1
18:59:22.356743,-2,0,-1,-14,-4,1,0,-1
18:59:22.356743,0,-2,0,-3,-7,-7,-11,-3
18:59:22.370735,-6,-4,0,-5,-2,3,14,-1
18:59:22.371735,-1,-8,-4,-4,-1,2,-10,-20
18:59:22.393720,14,0,4,3,15,15,127,53
18:59:22.394720,-128,90,10,-9,-18,-45,-81,-11
18:59:22.416706,127,8,-11,-20,-8,10,-128,62
18:59:22.416706,-128,-24,-30,-11,-14,-30,127,71
18:59:22.431699,127,-128,17,15,30,30,-128,127
18:59:22.431699,-128,-12,-76,-99,-128,-128,-46,-128
18:59:22.453686,13,-5,58,61,85,86,127,19
18:59:22.454686,28,127,13,-14,-12,34,127,75
18:59:22.476671,18,-40,-43,-25,-23,-86,27,-128
18:59:22.476671,83,63,16,-11,-15,-32,105,-20
18:59:22.498658,-93,3,30,47,-60,-55,53,34
18:59:22.499657,81,-128,-102,-7,-45,36,-11,43
18:59:22.513645,77,-32,3,-63,127,-94,-26,20
18:59:22.514649,-115,-45,-13,127,117,127,-3,-17
18:59:22.536633,127,42,0,-6,-7,102,60,121
18:59:22.536633,-55,37,-1,-116,-111,-83,-36,2
18:59:22.558618,-18,-4,55,127,127,116,37,-6
18:59:22.559617,-18,-58,-48,121,14,-12,2,-14
18:59:22.573611,84,45,-5,-87,16,-23,-14,7
18:59:22.574608,127,-6,13,44,52,11,54,53
18:59:22.603590,127,111,13,-8,-3,44,67,127
18:59:22.604591,45,-1,13,119,127,45,9,41
18:59:22.618584,-45,-25,12,33,105,31,17,-10
18:59:22.619584,127,90,9,-42,74,-70,-53,28
18:59:22.633571,-28,-11,-5,17,93,20,11,-5
18:59:22.634570,27,-2,3,71,127,17,-3,13
18:59:22.656561,-18,-6,3,-19,74,-11,14,24
18:59:22.656561,-2,8,7,7,-101,-10,-11,-1
18:59:22.678546,60,1,-3,-1,18,1,4,34
18:59:22.679545,31,27,7,-8,-128,10,25,36
18:59:22.693536,-27,-1,-1,44,80,25,3,-8
18:59:22.694536,86,35,22,68,25,30,3,3
18:59:22.716520,86,34,-1,70,127,65,15,31
18:59:22.716520,-11,-6,5,-5,90,0,0,3
18:59:22.738509,-15,-3,-1,31,21,1,-6,-15
18:59:22.739506,23,19,11,2,-77,17,8,21
18:59:22.753500,30,9,3,8,38,10,-9,5
18:59:22.754498,17,10,-3,-60,-15,10,24,17
18:59:22.776483,0,2,10,-12,-86,-3,12,13
18:59:22.776483,-4,-6,2,15,3,34,2,-4
18:59:22.798472,-12,-11,-16,-30,19,1,-2,3
18:59:22.799470,-9,-2,3,18,22,-4,-4,0
18:59:22.813463,7,-14,-14,-25,-16,-26,-6,0
18:59:22.814461,27,9,-5,-73,-128,-9,-9,1
18:59:22.836448,-9,5,8,81,127,14,0,-9
18:59:22.837446,-11,-7,-2,-63,-28,-9,-9,-10
18:59:22.858432,-13,-12,-11,-1,32,18,-1,-1
18:59:22.859431,-9,0,-5,-4,18,5,-7,-7
18:59:22.873425,-9,-2,-8,-75,-9,-4,5,-2
18:59:22.874423,-16,-13,-1,-11,38,-4,3,-9
18:59:22.896408,-9,4,6,18,-1,22,6,-6
18:59:22.897407,8,9,-4,25,48,9,-7,-8
18:59:22.918395,-7,3,0,-10,2,7,-6,-10
18:59:22.919397,-5,2,4,-12,-22,-5,-1,-5
18:59:22.933388,2,2,4,23,127,2,-2,0
18:59:22.934387,-13,-9,-1,20,98,-18,-2,-3
18:59:22.956374,3,1,-5,-3,33,11,3,17
18:59:22.957373,-12,-4,-6,-8,-9,2,-6,-6
18:59:22.978360,3,1,5,27,-7,-3,-3,-3
18:59:22.979359,-11,-6,-4,6,11,-2,-8,-3
18:59:22.993350,-1,-2,2,13,0,4,1,-5
18:59:22.994349,3,-2,-4,-21,16,7,2,1
18:59:23.016337,-2,0,2,-32,-13,12,-3,-2
18:59:23.016337,-4,-2,-3,24,43,-1,-3,-5
18:59:23.038322,0,2,4,-7,9,7,2,0
18:59:23.039320,-6,-8,-8,-13,-2,2,8,0
18:59:23.053312,-3,-7,-4,0,11,-2,-4,-3
18:59:23.054313,-11,-5,-2,5,3,-2,-5,-6
18:59:23.076298,-23,1,1,-5,-2,0,-2,-2
18:59:23.076298,2,-3,-1,-8,-16,-4,1,4
18:59:23.098283,-2,-5,-5,-7,-24,3,2,-5
18:59:23.099284,-2,-2,2,5,43,7,-3,0
18:59:23.113275,2,-1,-2,-17,-8,2,1,3
18:59:23.114273,1,1,1,8,9,6,-1,-4
18:59:23.136259,1,-2,-3,3,7,-4,0,-1
18:59:23.137259,-1,-2,-1,0,2,3,3,3
18:59:23.159246,0,2,-2,-1,0,-2,-7,-7
18:59:23.159246,-4,-1,-3,-2,-4,-3,0,-2
18:59:23.173237,-2,-3,-1,3,2,5,-1,0
18:59:23.174236,6,5,4,0,6,2,-3,-8
18:59:23.196225,-4,-5,-2,-1,0,1,-2,-3
18:59:23.197222,-2,-1,-4,-12,-16,-1,0,-3
18:59:23.219211,-2,0,0,26,0,1,-1,-2
18:59:23.219211,2,-2,-1,0,5,3,1,4
18:59:23.234199,-1,1,0,-2,-2,-1,4,-1
18:59:23.234199,2,-1,0,-2,-1,0,-2,-1
18:59:23.256188,1,-3,-2,-3,-2,-2,-4,-1
18:59:23.257184,-2,-3,0,-2,0,-1,-1,0
18:59:23.286170,0,2,3,2,0,-1,3,1
18:59:23.287166,-3,-2,-2,0,-7,0,-2,0
18:59:23.294161,-3,-2,1,-1,-2,-1,-3,-1
18:59:23.301160,0,0,-1,-5,-1,2,0,-4
18:59:23.316151,2,-7,-2,-4,-1,-1,0,4
18:59:23.317147,-2,-4,-3,0,-2,0,1,1
18:59:23.338136,-3,1,-1,-4,-2,-3,-3,-8
18:59:23.339137,-4,-6,0,0,-2,-1,-3,-3
18:59:23.354124,-2,-4,-2,-2,-3,0,3,5
18:59:23.361122,-4,-4,-5,-3,-2,2,0,-3
18:59:23.376110,-2,-5,-2,-2,-6,-6,-4,2
18:59:23.377110,-1,0,1,0,-3,1,0,-6
18:59:23.399098,0,-1,-2,1,-3,-2,-2,-3
18:59:23.399098,-1,-5,0,-3,-1,0,0,-1
18:59:23.414087,1,1,1,-3,-2,-2,-3,1
18:59:23.421086,11,6,-1,-3,-7,-4,-1,-1
18:59:23.436076,-5,-1,-1,-1,0,-2,-8,-12
18:59:23.437075,0,0,-2,1,-1,0,2,2
18:59:23.459060,-2,-3,0,-4,-3,-2,1,1
18:59:23.460060,7,1,2,-1,0,4,9,4
18:59:23.474050,2,1,-4,-1,1,-2,-4,-1
18:59:23.481047,-2,0,1,-3,-3,3,-2,1
18:59:23.496039,0,0,-1,6,-1,-4,-1,-2
18:59:23.497036,-4,-5,-2,-1,-6,0,-3,3
18:59:23.519025,-3,-4,-1,-4,0,-3,0,0
18:59:23.520021,3,-3,-2,1,2,1,2,2
18:59:23.534015,-2,1,1,1,-2,-3,-5,-2
18:59:23.541010,1,-1,0,1,3,-2,2,1
18:59:23.556999,1,1,1,-2,0,0,1,-1
18:59:23.556999,4,0,-1,-1,-3,-1,0,4
18:59:23.578985,3,1,1,0,0,0,0,1
18:59:23.579984,5,0,2,1,6,-3,-1,2
18:59:23.593975,-5,-2,2,-1,-1,0,0,-2
18:59:23.600971,-6,0,-4,-2,0,0,-2,-2
18:59:23.615961,0,-2,-5,-1,-4,0,-1,-3
18:59:23.616962,-3,-7,-8,-7,-5,-6,-6,-5
18:59:23.638948,1,-2,0,-1,0,-3,-3,-2
18:59:23.638948,-3,-4,-4,-3,-5,-3,0,-5
18:59:23.653942,-1,1,3,1,1,-2,0,-3
18:59:23.660937,-2,1,-1,-4,3,0,-3,1
18:59:23.675925,-1,1,1,0,2,2,0,-3
18:59:23.676925,0,-1,-3,-1,-1,-1,0,-2
18:59:23.698910,-4,-4,-3,-1,-1,-2,3,0
18:59:23.698910,-2,0,-1,-2,-2,-5,-1,-1
18:59:23.720897,7,1,2,-1,-2,-4,-1,0
18:59:23.721899,-2,-6,-1,0,-4,-2,0,-2
18:59:23.735889,-1,-1,1,2,-3,-1,1,-3
18:59:23.736890,-4,-1,-4,-5,-1,0,-3,-6
18:59:23.758873,-3,-1,0,-3,-5,-1,-1,-4
18:59:23.759873,-3,-1,2,-2,-1,0,-3,0
18:59:23.780860,0,-1,-3,-1,-3,0,-1,-1
18:59:23.781862,-1,-2,-1,0,-3,-1,2,-1
18:59:23.796851,-1,-2,1,-3,0,-3,-1,1
18:59:23.796851,-1,-3,-1,-2,-3,-1,-3,-3
18:59:23.818839,-8,-6,-2,-3,-2,0,-1,-6
18:59:23.818839,-6,-3,-2,-3,-2,-1,-2,-1
18:59:23.840823,-3,-2,0,2,2,0,1,-2
18:59:23.841822,-3,2,1,-1,1,-1,1,-3
18:59:23.856814,-2,0,1,1,0,2,-1,-1
18:59:23.863811,1,1,1,-1,1,0,-3,0
18:59:23.878802,-3,2,0,0,-3,-1,1,4
18:59:23.879798,-1,-1,0,-3,0,-3,-3,-1
18:59:23.900786,-4,-3,-1,-3,-1,0,3,1
18:59:23.901785,8,3,-3,-2,2,0,0,-3
18:59:23.916776,-2,-3,-2,-2,-5,-5,8,-7
18:59:23.916776,3,1,0,-1,1,6,-9,16
18:59:23.938767,-6,-4,-4,-3,-3,-2,-2,-11
18:59:23.938767,0,-2,-4,1,-1,-3,0,-5
18:59:23.961748,0,-1,-4,-2,0,-2,-3,-1
18:59:23.961748,-2,-2,-3,0,-2,-3,-6,-14
18:59:23.976740,-2,1,-2,-1,-1,-5,-1,-1
18:59:23.983737,0,0,-1,2,-1,-1,-1,-2
18:59:23.998728,0,-3,-3,-3,-3,-1,-4,-7
18:59:23.999727,1,1,-1,-2,-1,-1,-1,5
18:59:24.021713,-4,-3,1,-2,0,0,-2,-4
18:59:24.021713,2,2,3,-1,-2,0,1,1
18:59:24.036704,2,0,-1,-1,-2,0,-17,15
18:59:24.043696,-1,-1,1,3,3,0,-6,1
18:59:24.058690,2,-1,3,0,3,-1,7,3
18:59:24.059687,-2,-4,-1,-2,-1,-2,-4,-4
18:59:24.081676,1,-2,1,1,-1,-2,1,-2
18:59:24.081676,-1,0,0,-1,-1,-1,-2,4
18:59:24.096670,-3,-1,0,-2,1,-2,-3,0
18:59:24.103662,9,2,2,1,0,6,4,10
18:59:24.118653,1,0,1,1,-3,0,1,1
18:59:24.119652,-2,0,1,-4,-2,3,0,-4
18:59:24.140640,-4,1,0,-3,0,-3,14,0
18:59:24.141638,-7,1,0,0,-5,-3,-3,-4
18:59:24.156626,0,0,0,0,-2,2,-10,-12
18:59:24.163626,3,1,1,1,0,-3,3,8
18:59:24.178616,-4,-3,-4,3,0,0,-4,-6
18:59:24.179615,2,2,-3,-1,-1,-2,-1,-3
18:59:24.201601,-2,-3,-3,-2,0,-3,-1,-2
18:59:24.201601,4,2,3,5,1,-2,-1,4
18:59:24.216592,0,1,1,-3,-2,-3,2,4
18:59:24.223588,1,-3,-1,-3,-6,-4,-4,-6
18:59:24.238579,-10,-3,-5,-2,-4,-5,-3,-3
18:59:24.239576,0,-2,1,-2,-4,-3,-1,-2
18:59:24.261561,-6,-5,-4,-1,-4,0,-2,-6
18:59:24.261561,-4,-6,-1,-1,-1,1,-1,-5
18:59:24.276555,-3,-3,-1,-1,0,0,-4,3
18:59:24.283550,0,-1,-3,-2,-1,-3,9,0
18:59:24.298542,4,-1,1,0,-4,0,-10,1
18:59:24.299541,-2,-6,4,-2,-2,0,20,7
18:59:24.321525,-3,-2,-1,0,-2,2,4,-2
18:59:24.321525,-1,1,-3,-2,-1,3,0,2
18:59:24.336518,0,-1,-3,-1,0,1,3,2
18:59:24.343512,-1,0,-2,-3,1,1,-2,-5
18:59:24.358504,1,-5,1,-3,-3,-4,-2,-3
18:59:24.359501,1,0,-2,-2,1,-1,-2,0
18:59:24.388486,6,0,-1,0,1,-1,1,7
18:59:24.396478,-2,-2,-2,-1,1,-4,-2,-3
18:59:24.396478,-1,2,2,1,-2,-2,-3,-3
18:59:24.403475,-1,0,-3,1,3,-1,3,-2
18:59:24.418465,-2,0,-2,1,-3,-3,-3,0
18:59:24.419464,-1,-1,-2,-1,2,0,-22,-3
18:59:24.441450,-1,0,0,-3,-1,0,8,2
18:59:24.441450,1,0,0,0,-1,-3,0,-4
18:59:24.456444,0,-2,-3,-1,-3,-1,1,0
18:59:24.463437,-3,-2,-3,-1,0,-1,-1,-3
18:59:24.478428,1,0,0,-3,-3,-4,14,1
18:59:24.479426,-1,-4,-4,-1,-4,-1,-7,0
18:59:24.509409,-4,-2,-1,-4,-2,0,1,-4
18:59:24.509409,0,-1,0,0,2,2,-1,-2
18:59:24.516404,3,2,-1,-4,-1,-4,-4,2
18:59:24.531397,0,0,1,-1,0,0,3,-2
18:59:24.538392,-5,-2,0,-1,-1,-1,-2,-7
18:59:24.539392,1,-1,-3,-2,-2,-1,12,-3
18:59:24.561378,7,5,3,0,1,1,6,17
18:59:24.562378,-3,-1,-2,-1,3,-2,-1,-3
18:59:24.576366,-1,-1,0,0,0,3,1,0
18:59:24.583362,-1,3,0,4,0,-2,-12,-1
18:59:24.598352,-3,-2,-1,0,1,1,2,4
18:59:24.599355,-1,0,1,-1,-1,0,-4,-3
18:59:24.621341,-1,0,0,-2,-3,-4,-1,-5
18:59:24.621341,-2,2,1,1,2,-2,14,-2
18:59:24.643324,2,2,0,-1,-1,-3,-3,-1
18:59:24.644327,-1,0,-1,-1,1,0,0,1
18:59:24.658316,-5,-4,-4,-4,-2,-3,16,-1
18:59:24.659315,3,3,1,1,0,1,-8,4
18:59:24.681302,0,0,1,2,-1,2,2,0
18:59:24.682300,0,-1,-1,0,0,4,2,-1
18:59:24.704290,-3,1,1,-2,-2,-3,0,3
18:59:24.704290,-3,-4,-3,-2,-2,-1,-3,-3
18:59:24.718279,0,-3,-1,1,-3,-1,6,1
18:59:24.719278,0,0,1,-2,-1,-2,-2,4
18:59:24.741264,2,-3,0,-2,-2,0,0,-1
18:59:24.742264,1,-1,1,2,2,0,2,2
18:59:24.764253,-3,2,1,-2,-1,-1,-5,-3
18:59:24.764253,0,-1,0,1,0,-2,15,1
18:59:24.778242,5,0,0,2,-1,-1,-3,-3
18:59:24.779243,0,-2,-2,1,7,3,5,1
18:59:24.801230,3,0,0,2,2,3,-4,2
18:59:24.802229,0,-1,3,0,-1,0,1,-2
18:59:24.824214,-1,1,0,1,-2,-1,0,-2
18:59:24.824214,0,0,-4,-3,-4,-1,2,-1
18:59:24.839206,-2,-2,0,-3,0,-3,-2,3
18:59:24.839206,-2,1,-1,-2,-1,-4,2,-1
18:59:24.861193,-4,-2,-1,0,-1,2,-1,-4
18:59:24.862192,2,-1,-1,0,-1,1,4,6
18:59:24.884177,-3,-2,0,-1,-2,-2,12,-2
18:59:24.884177,-1,0,0,1,-2,-1,-3,1
18:59:24.899166,-2,-3,-2,0,0,1,2,3
18:59:24.899166,1,4,1,1,1,-2,3,0
18:59:24.921155,-4,-2,-2,-5,-2,-3,-2,4
18:59:24.922152,-1,-2,-1,0,-2,2,-4,-9
18:59:24.944139,8,0,0,1,2,-1,1,4
18:59:24.944139,-4,-1,0,-3,0,0,-1,0
18:59:24.959129,-3,-2,-1,-1,-1,-2,13,-1
18:59:24.966127,-3,2,1,3,0,-1,14,0
18:59:24.981118,0,-1,-1,1,1,2,3,-1
18:59:24.982118,-2,-2,0,1,-5,1,3,-3
18:59:25.004103,-2,0,-1,-2,-2,-1,1,-1
18:59:25.004103,3,1,0,-2,4,2,6,6
18:59:25.019095,-1,0,-1,-1,-2,-6,-4,-2
18:59:25.026090,1,0,-1,0,1,-2,-1,-4
18:59:25.049074,-6,-6,-4,-3,-1,-4,-6,-9
18:59:25.049074,3,0,2,1,-3,-4,-1,0
18:59:25.064064,0,-3,0,-3,-2,-2,-4,-6
18:59:25.064064,-4,0,-3,-3,-2,-2,17,0
18:59:25.079058,1,2,0,1,0,3,15,4
18:59:25.086053,-1,0,0,-1,-1,-2,-3,1
18:59:25.101044,7,3,4,1,4,2,2,3
18:59:25.102040,-1,-5,-1,-1,-1,-3,-1,-2
18:59:25.124027,2,2,1,-1,1,0,-1,-6
18:59:25.124027,-1,-1,0,-3,-3,-1,-22,1
18:59:25.139021,0,-1,-1,-2,-3,0,1,-1
18:59:25.146015,-2,0,0,1,-3,-3,0,0
18:59:25.161006,-1,-1,0,1,-1,2,1,-2
18:59:25.162006,0,0,2,2,4,1,1,-1
18:59:25.183992,1,-1,3,2,-3,-1,-10,-1
18:59:25.183992,-3,-1,-4,-1,0,-5,0,0
18:59:25.198983,1,0,3,-1,2,1,12,3
18:59:25.205977,-3,0,-2,-1,0,0,1,4
18:59:25.220969,-2,5,-1,-4,-4,-3,-3,2
18:59:25.221969,-4,-1,0,-1,0,1,18,-1
18:59:25.243955,0,2,1,1,1,0,-8,-3
18:59:25.244956,1,0,1,2,1,1,1,0
18:59:25.258943,2,-2,-3,1,-3,-2,1,-2
18:59:25.265941,-1,-1,0,-1,1,0,-2,0
18:59:25.280932,2,-3,-1,-2,-3,-1,-8,-1
18:59:25.281931,0,-1,0,-2,0,0,-1,-7
18:59:25.303918,-1,-1,0,-1,-3,1,-14,-4
18:59:25.303918,-4,-1,-1,0,1,-1,0,-3
18:59:25.318909,2,-3,-1,-1,-2,-2,0,-1
18:59:25.325902,-1,1,-2,2,1,1,1,-1
18:59:25.340897,-1,1,-2,-2,-1,2,-2,2
18:59:25.341891,-1,-3,-2,0,-3,1,2,-1
18:59:25.363881,-2,-3,0,-1,-1,0,-1,0
18:59:25.363881,1,1,1,2,1,3,-1,-3
18:59:25.378872,2,0,0,-3,0,-1,-1,2
18:59:25.385864,-4,-3,-2,-3,-2,0,-1,-3
18:59:25.400857,1,-1,0,-1,1,2,-5,5
18:59:25.401857,-1,1,-3,-1,-2,-4,-1,-1
18:59:25.423844,-3,-3,-1,-1,-1,-2,15,-1
18:59:25.423844,7,2,1,1,-3,1,-1,2
18:59:25.438831,-3,-2,-1,0,-3,0,1,-1
18:59:25.446829,3,1,-3,0,0,2,10,10
18:59:25.460818,1,4,1,-3,-1,0,-1,0
18:59:25.461818,1,0,2,-4,-2,-4,-2,-1
18:59:25.491798,0,0,-1,-2,-3,4,1,-1
18:59:25.491798,-2,-2,-1,-3,0,1,0,-1
18:59:25.498797,4,4,2,1,1,-1,-2,3
18:59:25.505792,-1,1,2,1,0,-3,-2,-2
18:59:25.520781,-2,-1,-4,-5,-3,-1,-4,-7
18:59:25.521780,0,0,-1,1,2,-2,-1,-2
18:59:25.543769,-2,0,0,-1,2,3,-7,-2
18:59:25.544768,-1,1,-1,-1,-5,-2,2,1
18:59:25.565753,-1,-1,-1,-2,-1,-1,1,-1
18:59:25.566755,3,2,0,0,-3,-2,-2,-6
18:59:25.580744,-1,-3,-3,-3,4,-4,3,-5
18:59:25.581745,-2,0,0,-1,-2,-1,-2,-3
18:59:25.603732,-1,3,0,0,-1,-1,6,0
18:59:25.604729,-1,0,-3,1,-4,0,-2,-3
18:59:25.626719,-7,-1,-1,-1,-1,-3,-2,-6
18:59:25.626719,2,1,2,1,3,-1,-1,2
18:59:25.641706,-1,1,-1,2,-4,2,-12,-4
18:59:25.641706,-4,-2,-2,2,-2,-3,-1,-4
18:59:25.671689,2,-1,-1,2,2,2,-18,-2
18:59:25.671689,-3,-3,1,0,0,-1,3,1
18:59:25.686680,-6,0,0,0,-1,0,0,-1
18:59:25.686680,1,-3,0,0,-1,-3,1,1
18:59:25.701671,2,1,-1,1,2,1,3,-4
18:59:25.701671,5,1,0,1,-1,0,4,1
18:59:25.723658,-3,-2,-1,1,0,-1,-3,-4
18:59:25.724654,-1,-1,-3,-2,2,-1,-1,-4
18:59:25.746642,-4,-3,-3,-2,-4,-6,-5,1
18:59:25.746642,-1,-4,-3,-4,2,-1,0,1
18:59:25.761631,-4,-4,0,-1,-2,-1,-1,-2
18:59:25.761631,-2,-2,-1,0,-2,-5,0,-1
18:59:25.783621,2,-1,1,-1,-1,0,-2,0
18:59:25.784617,-1,-3,-2,0,-1,-2,-10,-2
18:59:25.806605,-3,0,-1,0,-4,0,2,2
18:59:25.806605,1,-3,-2,-4,-4,-1,-3,-2
18:59:25.821594,-2,-3,-2,-1,-3,-2,0,-2
18:59:25.821594,-2,-3,-1,-2,-1,2,2,0
18:59:25.843583,-2,-3,-1,-3,1,2,-2,0
18:59:25.844580,1,0,-2,0,-1,-3,-3,-1
18:59:25.866566,-1,-2,-5,-1,-2,-2,3,-1
18:59:25.866566,-3,-2,0,0,-4,-3,-5,0
18:59:25.881560,-1,0,1,-1,1,-1,-4,-7
18:59:25.888555,0,-1,-2,-4,-1,0,-1,-3
18:59:25.903546,6,-1,0,-2,-1,-1,3,-3
18:59:25.904544,-1,2,0,1,0,-3,-1,-2
18:59:25.926529,-2,-6,-2,-2,-3,-3,3,-2
18:59:25.926529,-2,-1,0,-2,-3,0,1,1
18:59:25.941523,-1,-2,-1,0,0,2,0,-2
18:59:25.948518,-1,2,0,1,2,2,3,3
18:59:25.963507,-1,0,-1,-1,-2,-2,-3,-1
18:59:25.964505,-2,-1,-2,-1,-2,-2,-1,-3
18:59:25.986492,0,-3,-3,0,-1,0,1,1
18:59:25.986492,-3,-4,-1,-2,-2,-1,0,4
18:59:26.001486,1,1,1,1,-1,1,-2,-1
18:59:26.008478,-3,-4,2,-1,-2,-1,-1,-3
18:59:26.023472,-1,-3,-2,-1,1,2,-4,0
18:59:26.024468,4,0,0,-3,0,-1,17,3
18:59:26.046455,-2,-1,1,-2,0,0,-9,-7
18:59:26.047460,3,1,-3,-1,-1,0,1,-3
18:59:26.061448,0,1,-3,0,-3,0,0,-1
18:59:26.068441,1,-1,1,-2,-3,-2,-4,-1
18:59:26.083434,2,-2,1,-1,-1,-4,1,1
18:59:26.084431,-4,-3,-3,-2,-2,-1,0,-1
18:59:26.106418,1,-2,-3,2,0,-2,0,0
18:59:26.107420,-3,0,0,1,0,-1,2,3
18:59:26.121411,-3,-4,-4,-6,-3,2,0,0
18:59:26.128404,-4,-2,0,2,0,-4,-3,-2
18:59:26.143396,-4,-1,-2,-4,0,-3,8,-3
18:59:26.144396,-1,0,-1,-1,-2,-4,0,-1
18:59:26.166383,-3,1,0,2,-3,-3,2,-1
18:59:26.166383,0,-4,-1,-3,-1,3,2,2
18:59:26.181374,-2,1,0,-2,0,-2,0,0
18:59:26.188367,-2,-2,-1,-1,2,2,-3,0
18:59:26.203357,0,-3,1,1,-3,-3,-11,-5
18:59:26.204356,0,-3,-2,-3,0,5,5,1
18:59:26.226343,-6,-4,0,-3,-2,-1,-1,-5
18:59:26.227345,-1,-1,0,2,-2,0,1,-1
18:59:26.241336,-5,-2,-1,-4,-1,1,0,-2
18:59:26.248329,3,0,0,-1,-1,-3,9,0
18:59:26.263319,1,3,-3,0,1,-1,-16,-4
18:59:26.264322,-3,2,2,-2,-3,-3,-1,1
18:59:26.286309,6,3,-2,1,-3,-3,1,2
18:59:26.294304,-2,0,2,0,-4,-5,0,2
18:59:26.301300,-2,3,-1,-2,-1,0,-2,-2
18:59:26.308292,-2,-3,-1,-4,2,4,2,1
18:59:26.323282,-1,-2,-4,-2,1,-3,-4,-8
18:59:26.324285,-5,-8,-3,0,-1,-2,1,-2
18:59:26.346272,0,-2,0,-1,-2,-2,-4,-1
18:59:26.347268,-3,-1,-2,0,-2,1,-1,2
18:59:26.361260,0,1,-3,-3,1,1,2,-3
18:59:26.368257,-2,-2,-1,-1,0,-2,-1,-1
18:59:26.383246,-1,-2,-2,1,0,3,3,-2
18:59:26.384245,-2,0,-2,-2,1,2,2,0
18:59:26.406234,-3,-2,-4,-1,-3,-2,0,0
18:59:26.406234,4,1,5,0,-1,0,2,0
18:59:26.421225,1,-1,1,1,-3,-1,1,-1
18:59:26.429218,0,-3,-4,-2,-2,-2,-6,-5
18:59:26.444207,-3,-2,1,1,-1,-1,-11,-3
18:59:26.444207,0,-1,2,-1,-4,-2,0,1
18:59:26.466197,0,-5,-1,0,-1,1,-1,0
18:59:26.467193,-6,-3,0,-1,-1,0,-3,-4
18:59:26.481188,5,1,0,3,1,-3,1,1
18:59:26.488185,-2,-4,0,-2,1,-1,-2,-3
18:59:26.503172,0,0,0,-1,0,-1,0,-3
18:59:26.504173,-6,-2,-2,1,-2,-1,-4,-7
18:59:26.526157,2,0,0,-1,-3,-1,8,0
18:59:26.527158,0,-2,0,1,0,0,-3,-4
18:59:26.549144,2,3,-1,0,0,-3,-1,0
18:59:26.549144,-4,-2,2,0,0,0,1,-1
18:59:26.564135,-1,-3,-1,-2,-4,2,-4,-4
18:59:26.564135,-3,-1,-1,-1,-3,0,-11,-3
18:59:26.594120,6,3,-1,-2,0,-2,1,0
18:59:26.594120,1,1,1,-3,-6,-3,3,3
18:59:26.609106,2,1,-2,-3,-1,4,3,1
18:59:26.609106,-1,-5,-1,-2,-2,0,-2,1
18:59:26.624098,-3,0,-1,-2,-2,-2,-4,-4
18:59:26.624098,4,2,2,0,1,-1,0,2
18:59:26.646086,6,2,1,3,2,0,-2,0
18:59:26.647084,-3,-6,-1,-1,-2,1,-6,-1
18:59:26.669069,0,-4,-2,-1,-1,-1,3,5
18:59:26.669069,7,4,1,1,2,-1,1,0
18:59:26.691057,-3,-1,1,-2,-2,-2,15,-2
18:59:26.692054,2,-2,-6,0,1,1,-1,0
18:59:26.714041,-4,-3,-4,-2,0,-2,1,-2
18:59:26.714041,-4,0,-1,-3,0,-4,0,-6
18:59:26.729031,0,-2,-1,-3,-1,1,-1,-2
18:59:26.729031,0,3,0,-1,0,0,3,4
18:59:26.744022,-4,-2,-3,-3,-3,-4,-4,-2
18:59:26.745023,5,-1,0,-4,0,-1,6,6
18:59:26.766011,0,-1,0,2,0,-1,-1,-1
18:59:26.767008,-5,-2,-1,2,-2,0,-3,-4
18:59:26.788994,12,6,-3,-2,-1,1,-7,6
18:59:26.788994,-13,-6,-2,1,-3,-6,-6,-8
18:59:26.803985,4,3,1,0,1,1,4,0
18:59:26.803985,0,-4,-2,-1,0,-4,0,-1
18:59:26.825971,-1,-3,1,-2,2,-1,-7,-9
18:59:26.826971,0,0,-1,-3,-1,0,3,2
18:59:26.848957,-4,-4,-1,1,1,-4,-6,0
18:59:26.848957,3,1,0,-2,-4,-2,-23,-6
18:59:26.863950,1,-1,-3,1,-3,-2,5,3
18:59:26.864950,-7,-4,-4,-1,-4,-3,-17,-2
18:59:26.885934,2,3,1,0,0,-6,1,1
18:59:26.886936,-5,0,-1,1,1,3,0,-4
18:59:26.908921,2,2,0,1,0,-1,0,0
18:59:26.908921,4,1,-1,-4,0,-3,-3,-2
18:59:26.923910,-2,0,2,0,1,0,-1,-3
18:59:26.923910,-1,1,1,4,-1,-4,-3,-1
18:59:26.946896,1,1,-1,-2,0,0,5,7
18:59:26.946896,1,-1,-2,-3,-6,-2,-3,-2
18:59:26.968883,-3,-3,2,1,1,-1,9,1
18:59:26.969882,-2,-2,1,-2,2,0,16,1
18:59:26.982880,4,4,-4,0,0,1,-1,-2
18:59:26.983872,2,-2,0,2,4,3,2,1
18:59:27.005860,-9,-5,-1,-1,-1,-3,-3,2
18:59:27.006860,-2,2,-2,-2,-2,1,1,0
18:59:27.028847,-1,0,1,-1,0,-3,-3,-5
18:59:27.028847,-1,1,2,-1,0,2,1,-1
18:59:27.043836,0,3,1,-1,-1,-3,-1,0
18:59:27.043836,1,-1,4,-2,-3,-4,-6,2
18:59:27.065822,-4,0,1,-3,-2,0,-1,-1
18:59:27.066825,-1,-1,0,-2,-2,-5,-4,-3
18:59:27.088811,-1,-1,-2,-2,-3,0,14,-2
18:59:27.088811,3,1,0,-1,1,-3,-5,1
18:59:27.103802,2,-3,0,1,1,-3,2,-4
18:59:27.104801,-1,-1,1,-2,-3,-1,6,0
18:59:27.133783,-7,-8,-1,-3,-2,-3,-3,1
18:59:27.134780,-4,-5,-1,0,-1,1,0,0
18:59:27.148774,-2,-2,0,-4,-2,1,1,-1
18:59:27.149772,-4,-3,-3,-3,-4,-1,1,-3
18:59:27.163764,-4,2,0,-1,-3,-4,0,3
18:59:27.164763,0,2,2,3,0,2,4,1
18:59:27.186750,-2,0,0,-1,-1,1,-4,-2
18:59:27.187748,0,0,-1,-3,-1,-3,1,5
18:59:27.208737,0,-2,-3,-1,-1,-4,-3,-5
18:59:27.209735,0,-1,-1,-1,0,-1,-15,1
18:59:27.223727,-1,-2,0,0,-3,1,2,-3
18:59:27.238718,-1,1,-1,-2,-2,-2,-1,-6
18:59:27.246710,0,-3,0,0,-3,-5,-15,4
18:59:27.246710,-4,2,-1,2,0,2,3,0
18:59:27.268699,0,-2,0,-3,-2,-5,1,6
18:59:27.269699,1,2,0,0,-2,-1,-4,-2
18:59:27.291682,-1,-4,-1,-1,1,-2,-2,-3
18:59:27.291682,-3,-1,-1,-3,-3,2,0,-5
18:59:27.306674,0,0,1,2,2,-1,-2,1
18:59:27.306674,-3,-3,-3,-3,0,-1,-2,-2
18:59:27.328662,-2,-1,-3,-1,1,-2,-28,-6
18:59:27.329658,-2,1,1,1,-3,-4,7,3
18:59:27.351645,-6,0,-6,-5,-2,-2,-2,-3
18:59:27.351645,-1,-1,-3,-1,-1,-1,0,3
18:59:27.366636,2,-3,-3,-2,0,-1,-1,0
18:59:27.366636,1,1,2,-3,1,0,-16,-4
18:59:27.388625,-3,-2,-3,-3,-1,0,1,-4
18:59:27.389625,3,0,1,-2,2,2,3,4
18:59:27.411608,1,-2,0,-2,2,-3,-4,-1
18:59:27.411608,-6,-8,-2,-1,2,0,0,7
18:59:27.426599,0,-3,-1,0,-3,-1,-1,-2
18:59:27.426599,-1,-2,-2,0,0,0,-3,0
18:59:27.448588,1,0,0,-2,3,-1,1,1
18:59:27.449586,-2,-2,1,-2,-2,-2,-4,-5
18:59:27.471571,1,0,-5,0,-4,1,16,3
18:59:27.471571,-5,1,-1,-4,0,-5,-8,-3
18:59:27.486562,-1,-2,-3,0,0,1,3,-1
18:59:27.486562,-1,-1,-1,-2,-1,-2,-1,0
18:59:27.508548,-1,-1,1,3,-1,-2,-3,1
18:59:27.509550,-1,-4,1,-1,-1,-3,-1,1
18:59:27.531534,-1,1,-3,-2,-2,-1,-1,-1
18:59:27.531534,-1,1,1,2,2,0,-1,-3
18:59:27.553523,-4,-3,-1,-1,-2,2,0,-2
18:59:27.554522,-1,2,1,2,1,4,-9,5
18:59:27.568514,-1,-1,-3,-2,-1,-4,-1,-2
18:59:27.569511,2,-1,0,0,1,0,0,1
18:59:27.591497,-1,-3,0,0,-3,0,-2,-5
18:59:27.591497,-2,2,0,-1,-2,-3,20,6
18:59:27.606490,-1,-1,-2,0,-1,-1,-14,-4
18:59:27.606490,0,-1,2,1,0,2,7,9
18:59:27.629476,-1,-3,-2,2,-3,0,-2,-4
18:59:27.629476,3,1,-2,-1,-2,-2,2,0
18:59:27.658458,-1,-1,-1,-5,-3,1,-3,0
18:59:27.659454,-4,-3,-4,-2,-1,-1,-1,0
18:59:27.666452,-5,0,-1,-3,-4,-3,-14,-4
18:59:27.667452,1,-3,-1,0,1,-1,3,5
18:59:27.696435,-1,-1,-3,0,-3,-1,0,-4
18:59:27.697432,12,4,-1,-1,0,-1,4,3
18:59:27.711422,1,1,0,1,-3,0,-14,-1
18:59:27.712426,-2,-1,-1,1,1,0,3,0
18:59:27.726413,0,-2,-1,-2,0,-1,-2,1
18:59:27.726413,2,2,0,-2,-3,-2,2,-3
18:59:27.748402,-1,-1,0,-3,-1,0,-2,-4
18:59:27.749399,-7,-8,0,-1,1,-2,-6,-5
18:59:27.771388,1,-2,-3,-1,0,-3,-1,1
18:59:27.772386,1,-1,0,-2,-4,1,-2,1
18:59:27.786379,-3,-2,0,-2,0,-1,-2,1
18:59:27.787378,1,-1,1,-4,1,-4,2,0
18:59:27.808363,4,-1,1,1,-1,0,0,-1
18:59:27.809362,1,1,0,0,0,0,0,0
18:59:27.831351,0,-3,-1,-1,0,-2,17,-2
18:59:27.831351,4,0,0,0,-2,2,-3,0
18:59:27.846342,-1,-2,-1,-2,-1,1,3,1
18:59:27.847341,-1,0,1,0,0,2,1,-1
18:59:27.876322,0,-1,1,-3,-1,-2,-10,-2
18:59:27.877323,-1,-2,-2,0,-1,-1,0,-4
18:59:27.891313,1,-1,1,-1,0,1,-1,-1
18:59:27.892310,-1,-2,0,-1,-1,-2,-2,0
