timestamp,emg1,emg2,emg3,emg4,emg5,emg6,emg7,emg8
15:40:13.775533,1,2,-4,-1,-2,-4,-1,0
15:40:13.783527,-2,-2,-1,-2,0,2,-3,-2
15:40:13.798518,0,0,0,-4,-4,-3,-2,0
15:40:13.798518,-1,2,1,-3,-3,1,2,-1
15:40:13.813508,-2,-2,-1,0,0,-1,-2,-3
15:40:13.820503,-1,-1,-2,-1,-2,-2,-1,-3
15:40:13.835495,-1,3,0,-2,0,-4,0,2
15:40:13.842490,1,0,0,2,-2,0,2,-1
15:40:13.857480,-1,-3,-3,-2,-1,2,3,-1
15:40:13.858480,0,1,3,2,4,-1,1,4
15:40:13.872474,0,1,-5,1,-2,-1,-2,-1
15:40:13.880469,0,-2,-1,-1,-7,-3,1,3
15:40:13.896460,0,-1,-2,-2,0,3,0,0
15:40:13.903453,1,-4,-1,-1,3,3,2,0
15:40:13.918442,-2,-3,-1,-3,-3,-4,-4,-3
15:40:13.918442,-1,0,2,1,0,2,1,0
15:40:13.933436,-1,0,-1,0,-3,-7,-3,-1
15:40:13.940429,-2,0,2,-3,1,-1,0,2
15:40:13.963415,-1,0,-1,-1,-1,0,-3,-2
15:40:13.963415,0,-1,0,0,-3,-3,-1,0
15:40:13.978406,0,-3,0,0,1,-4,0,3
15:40:13.978406,2,2,1,3,-3,-1,1,4
15:40:13.993396,2,2,1,-2,3,-1,-3,3
15:40:14.000394,-1,-3,2,-2,2,-1,-3,-3
15:40:14.015385,-2,-3,-3,-1,1,2,0,-2
15:40:14.023381,-1,1,1,0,1,0,-1,-1
15:40:14.038368,-1,-2,-3,-1,-3,1,-1,-1
15:40:14.038368,-1,1,5,0,5,7,1,0
15:40:14.053362,-4,-1,0,-2,-4,-1,-3,-1
15:40:14.060357,-3,0,0,0,-2,-3,-1,-1
15:40:14.075347,-3,-3,-4,0,-2,-4,-5,-3
15:40:14.083343,0,-2,-1,3,-1,0,1,2
15:40:14.098331,-1,0,-3,-2,0,1,-3,-2
15:40:14.098331,2,-2,-1,1,4,0,-1,0
15:40:14.120320,-4,-5,-2,-2,-2,-1,-3,-4
15:40:14.121317,-2,-2,-1,0,2,-2,-1,0
15:40:14.135310,0,-2,0,0,0,0,-3,-3
15:40:14.143303,2,-1,0,-2,2,1,-3,-2
15:40:14.158293,-3,-2,-1,-3,-1,-2,-1,-3
15:40:14.158293,-2,2,3,0,1,1,-1,0
15:40:14.173287,-1,-2,-1,1,1,-2,-3,-3
15:40:14.180282,0,-2,2,1,1,2,-3,-1
15:40:14.203269,-2,0,0,-3,-4,-2,-3,-2
15:40:14.210263,-2,2,-2,-1,0,-1,-3,-3
15:40:14.218258,-3,-3,0,-2,-1,-1,-2,0
15:40:14.218258,-1,-1,-1,0,2,0,0,-2
15:40:14.233248,-1,0,-1,0,-3,0,-1,0
15:40:14.240245,0,-1,1,0,-1,3,-1,0
15:40:14.255236,-4,0,-2,-4,-5,-2,-4,-1
15:40:14.263232,1,2,3,0,2,-2,0,0
15:40:14.278219,-2,-3,-4,-2,-1,-1,-1,1
15:40:14.278219,0,0,-1,-1,-3,1,2,1
15:40:14.293212,1,0,1,4,3,-1,-2,-1
15:40:14.300206,-1,-1,0,-1,-1,-1,0,-3
15:40:14.316196,1,1,-1,1,2,4,-1,2
15:40:14.323194,1,-2,-1,-1,-2,-2,0,0
15:40:14.338182,-3,-1,-3,-2,-1,-1,2,0
15:40:14.338182,0,1,1,-2,-1,-1,0,1
15:40:14.353176,2,0,-2,2,-1,-1,-1,-1
15:40:14.360171,-1,1,-4,-2,1,-1,-2,-1
15:40:14.376159,3,-1,0,0,-3,-2,-3,0
15:40:14.383157,-2,-2,-3,-2,-1,-4,-1,-4
15:40:14.398144,2,-1,0,-1,-1,1,0,-2
15:40:14.399145,-1,-4,-1,-1,-1,0,0,0
15:40:14.413138,0,-3,-1,-3,0,-1,-2,0
15:40:14.428129,-2,-1,-1,1,-1,-2,1,-1
15:40:14.436121,-1,1,-1,-2,1,-1,-1,-3
15:40:14.443120,1,-1,-1,-3,3,-1,1,0
15:40:14.458108,-1,-2,-1,0,-1,-1,-1,2
15:40:14.459108,0,1,-4,1,0,1,1,1
15:40:14.473145,0,-1,-1,-2,0,0,3,1
15:40:14.481140,-1,1,1,-2,1,2,-2,1
15:40:14.496132,-2,-1,-1,0,-3,-3,-1,0
15:40:14.511121,-1,-1,-3,-1,-2,-1,-4,0
15:40:14.518120,-1,2,-2,0,-1,0,0,0
15:40:14.518120,-3,-2,-1,0,-2,-4,-3,2
15:40:14.533111,-2,0,-1,-1,-1,-1,0,2
15:40:14.541103,0,-1,-3,-3,-4,2,3,3
15:40:14.556095,1,-1,0,-1,-3,0,-1,-3
15:40:14.563089,-3,-1,-3,-3,2,-3,0,-2
15:40:14.578080,-1,1,0,0,-1,-2,0,0
15:40:14.579079,2,1,0,-1,3,2,-2,1
15:40:14.593116,-1,-2,-1,-2,-1,-1,0,2
15:40:14.608104,0,-1,1,0,-4,-2,-1,-3
15:40:14.615101,-2,2,4,2,2,-3,0,-2
15:40:14.623094,-2,-1,-4,-3,-6,-4,-2,-1
15:40:14.638088,-3,0,2,0,0,1,0,-3
15:40:14.638088,-3,-1,0,-1,-1,-4,-2,0
15:40:14.653079,-2,-1,-1,0,-2,-1,-1,-4
15:40:14.661074,-2,0,2,3,0,1,-1,1
15:40:14.676063,0,1,-1,1,0,-2,-2,-1
15:40:14.683057,7,0,-1,-1,3,4,3,-1
15:40:14.698051,-1,2,-3,0,-3,-2,-2,-2
15:40:14.705043,3,0,0,1,0,0,1,-1
15:40:14.728032,0,-1,-1,-3,-2,1,0,-2
15:40:14.729031,0,1,1,11,5,1,0,1
15:40:14.736029,-3,0,-1,-6,0,-1,0,-3
15:40:14.743021,0,0,-3,1,-6,-2,1,0
15:40:14.758011,-1,-3,-3,-1,2,3,2,-1
15:40:14.766006,-3,-2,-2,0,-3,1,1,-1
15:40:14.780997,0,1,-1,-2,-2,0,-2,-2
15:40:14.780997,5,3,3,4,4,3,3,2
15:40:14.795987,4,-2,2,3,-3,1,2,1
15:40:14.802986,-3,-2,-3,-1,0,0,0,-1
15:40:14.817977,0,-2,-2,-4,-2,0,-6,0
15:40:14.825970,0,-3,-2,0,-3,-4,-1,1
15:40:14.840961,1,-2,3,-1,-1,-3,-2,-1
15:40:14.841960,0,1,2,1,0,-1,0,0
15:40:14.855951,-1,-1,-2,0,0,-3,-1,-2
15:40:14.862946,-2,-2,-3,1,1,0,1,-3
15:40:14.877937,1,-4,-2,-1,0,1,-2,-3
15:40:14.885932,3,3,-1,0,2,-1,-2,0
15:40:14.900923,-4,-1,-1,-2,-1,-3,-1,-5
15:40:14.900923,1,-2,-1,2,0,-3,-3,-1
15:40:14.915962,1,-1,-4,2,-3,-3,0,0
15:40:14.922958,-3,-4,1,-3,1,-1,2,0
15:40:14.937949,-3,-1,0,-1,-1,-2,-1,-2
15:40:14.945941,-1,1,2,0,-2,0,0,0
15:40:14.960933,1,-4,0,-4,1,-1,-4,-2
15:40:14.960933,-2,-1,-1,-2,-1,-1,-2,-1
15:40:14.975926,-1,-4,-1,-2,-6,1,-3,0
15:40:14.982921,-1,3,0,0,-2,-2,-1,-1
15:40:14.997912,-3,2,-2,2,-2,-1,-2,-2
15:40:15.005906,-1,0,-1,-3,0,-6,1,0
15:40:15.020895,0,1,1,2,5,2,1,1
15:40:15.020895,-1,1,-1,1,-3,-3,0,-3
15:40:15.035886,1,-1,-1,2,-3,-2,-1,-1
15:40:15.042884,-1,-4,-3,-1,1,-1,-1,-1
15:40:15.058872,1,1,1,1,1,-4,1,3
15:40:15.065870,0,0,2,1,4,-1,0,4
15:40:15.080858,-1,-2,-1,-2,-1,1,1,1
15:40:15.080858,-2,-1,0,-2,1,2,-4,-1
15:40:15.095851,0,0,-1,-2,-2,0,-3,-4
15:40:15.102844,2,-2,2,-2,-4,-2,-1,-4
15:40:15.117836,-1,-1,-2,-1,-4,2,1,-2
15:40:15.125830,0,0,0,0,2,-2,-1,1
15:40:15.147819,0,1,-1,2,-3,-2,-1,-1
15:40:15.148816,-3,-1,-1,-6,0,-1,-1,-3
15:40:15.155811,2,-1,0,-1,-4,0,-1,0
15:40:15.162807,0,-1,-1,-3,-3,-1,-2,-2
15:40:15.177800,-1,-1,0,0,-2,-2,-3,-2
15:40:15.185796,-1,-1,-2,-1,-4,-2,1,0
15:40:15.200786,2,1,-2,2,5,0,0,0
15:40:15.200786,1,0,-1,-1,-2,-3,-1,0
15:40:15.230767,-2,-5,-3,-3,-2,3,0,-4
15:40:15.230767,-1,1,-2,-3,0,-1,-1,2
15:40:15.237763,0,-2,-1,-1,-1,-2,1,-3
15:40:15.245759,-4,-2,-4,-4,-2,2,-3,0
15:40:15.260748,-3,-1,1,-2,-4,-3,-4,-1
15:40:15.260748,-3,-2,2,-1,0,-2,-1,0
15:40:15.275739,-1,0,0,1,0,1,0,3
15:40:15.282735,1,-1,2,-4,-1,0,0,-1
15:40:15.297725,1,-1,-3,0,1,2,0,1
15:40:15.305721,-3,-4,-1,-3,-6,2,-2,-3
15:40:15.327707,2,0,3,-3,1,1,1,-2
15:40:15.328704,-4,-2,-1,-3,-3,1,-2,-2
15:40:15.342696,3,-2,-1,-3,-2,-4,-5,-1
15:40:15.343697,-2,-3,-2,-2,0,-3,-1,-4
15:40:15.357686,-4,-1,-1,1,-5,0,-2,-1
15:40:15.365684,-1,-1,0,-1,0,0,2,-1
15:40:15.380675,0,-1,-1,2,-4,-3,-2,-2
15:40:15.381672,-1,-2,-3,-6,-5,0,1,-2
15:40:15.395665,0,-2,-1,1,0,-3,-1,1
15:40:15.402659,-1,1,-1,3,-1,3,-2,1
15:40:15.417650,0,0,2,-1,2,0,0,-1
15:40:15.425646,1,2,0,2,-1,2,0,0
15:40:15.440635,1,-4,1,-3,-2,-2,-1,0
15:40:15.441634,-2,-2,2,-3,-2,-1,-2,-1
15:40:15.455625,1,-1,0,0,5,-1,-1,-1
15:40:15.462627,0,-1,-1,-3,-3,0,-2,-1
15:40:15.477613,-2,1,-2,-1,-3,-4,-1,2
15:40:15.485607,1,0,1,0,2,4,2,1
15:40:15.500598,2,-3,-2,0,0,0,1,-4
15:40:15.500598,-1,-2,-1,-2,1,-4,0,0
15:40:15.515588,1,-3,-1,-2,1,-1,3,0
15:40:15.522586,-1,-3,-3,-1,-3,0,2,0
15:40:15.545609,1,0,2,1,-2,1,0,-1
15:40:15.545609,-2,-3,-3,-3,-1,-1,-2,-3
15:40:15.560602,-4,-2,-2,-1,-2,1,-1,-3
15:40:15.561599,1,-1,-3,-1,-1,-3,-1,-1
15:40:15.575590,-1,-2,0,-3,-1,2,-3,1
15:40:15.582585,1,-2,-1,-2,2,2,2,-4
15:40:15.598579,-2,0,-2,-1,-1,-2,-1,0
15:40:15.605572,-1,1,1,1,1,-5,2,0
15:40:15.620565,-3,0,0,-1,-4,1,0,0
15:40:15.621561,0,1,1,2,-3,-6,0,-2
15:40:15.650547,-2,-1,-2,-2,-3,0,0,0
15:40:15.651543,1,2,1,3,4,2,2,-2
15:40:15.658539,1,1,-3,0,1,1,1,1
15:40:15.665537,-1,1,-1,-2,-1,1,-2,-1
15:40:15.680525,-1,-5,-4,-2,1,-2,1,1
15:40:15.688523,-2,-2,-1,-1,0,0,-1,0
15:40:15.703512,-2,-2,-3,-4,0,1,-3,-1
15:40:15.703512,-3,1,0,1,-1,0,2,1
15:40:15.718501,-2,-3,-1,-1,-2,-3,-3,-2
15:40:15.725497,-2,0,1,-3,-5,-1,-3,2
15:40:15.740489,-1,1,-2,0,-4,-2,0,-1
15:40:15.755479,0,-5,-2,-2,-1,1,-1,-2
15:40:15.763473,-1,0,-4,0,-3,-1,-2,-2
15:40:15.763473,1,-1,-3,2,0,3,-1,-3
15:40:15.778465,-2,1,0,1,0,-1,0,2
15:40:15.785463,-1,2,1,1,1,0,-1,-3
15:40:15.800453,1,-3,-2,-1,0,-2,-2,0
15:40:15.808446,-3,-2,-2,-2,-1,-4,-1,0
15:40:15.823437,-6,-2,-3,-1,-3,0,0,-2
15:40:15.823437,-1,2,-2,-1,-2,-2,0,-3
15:40:15.838428,1,-2,1,-3,-1,1,-1,-1
15:40:15.845425,-3,3,0,3,1,-4,-1,-3
15:40:15.860416,1,-1,-4,2,-3,1,-1,-2
15:40:15.868409,-4,-1,-1,-1,3,-3,-6,-3
15:40:15.883401,-2,-1,1,1,-1,1,0,1
15:40:15.883401,2,1,2,0,2,-1,2,2
15:40:15.898390,-1,0,-1,-2,0,2,0,1
15:40:15.905388,2,1,-1,0,-3,-3,-2,-1
15:40:15.920379,3,1,1,0,2,-4,1,0
15:40:15.928371,-1,-3,-1,0,1,-2,0,-2
15:40:15.943363,0,2,1,-1,0,-1,-1,-1
15:40:15.943363,-1,-4,-3,-4,-4,0,-2,0
15:40:15.965349,1,-3,2,2,2,1,2,0
15:40:15.966351,2,-1,-2,-2,-3,-4,-1,0
15:40:15.980342,2,-4,-2,-1,0,-1,1,1
15:40:15.988337,-1,1,-1,0,1,-5,-2,0
15:40:16.003325,-2,2,-1,1,2,-3,-1,3
15:40:16.003325,1,-1,-1,-1,-1,1,2,1
15:40:16.018316,-1,-1,0,1,3,1,-3,-1
15:40:16.025313,-3,-1,-2,0,0,-2,1,-1
15:40:16.040304,0,-1,0,0,-4,-3,-1,-1
15:40:16.048297,2,2,2,1,-2,0,-2,1
15:40:16.063290,-1,2,3,4,4,0,3,3
15:40:16.063290,-4,-2,-3,-3,-1,0,-1,1
15:40:16.078278,-5,-3,-4,-5,-2,-6,-4,-3
15:40:16.085275,-2,-2,-1,-4,-2,-2,-2,0
15:40:16.100267,-3,0,8,6,-3,-3,-1,-1
15:40:16.108259,-5,-2,-16,-22,1,-1,0,0
15:40:16.123250,-5,-5,-1,6,-1,-1,-2,-5
15:40:16.123250,2,1,1,-2,2,2,-1,-2
15:40:16.138244,-1,-1,-8,-13,-2,-6,0,2
15:40:16.146237,-2,3,-10,-9,-3,0,1,0
15:40:16.160230,-4,-4,0,-12,-2,-4,-3,-2
15:40:16.175221,3,6,15,21,-5,-1,2,-1
15:40:16.183215,1,-8,-11,18,8,6,-1,1
15:40:16.183215,10,15,-47,-128,16,4,3,-1
15:40:16.198203,-12,-18,29,36,-6,-21,-10,-6
15:40:16.205201,8,4,-9,-101,-7,10,6,10
15:40:16.220192,3,0,-22,-37,-94,-10,3,3
15:40:16.228188,4,16,13,-48,47,10,-2,0
15:40:16.243179,14,27,-14,61,-10,-2,5,7
15:40:16.244177,-7,-7,35,48,127,11,-5,-5
15:40:16.258169,-16,-39,-18,31,72,47,-2,-9
15:40:16.265163,36,95,104,-50,44,-23,17,16
15:40:16.281154,-19,-63,-51,-93,-128,-92,-11,-11
15:40:16.288151,3,21,13,-128,85,1,-3,0
15:40:16.303142,-27,-52,19,79,127,75,-4,-9
15:40:16.303142,35,27,33,33,127,-11,15,22
15:40:16.318133,-49,-67,-40,-128,-128,-72,-26,-30
15:40:16.326125,36,60,41,127,-128,-25,14,12
15:40:16.341116,-41,-45,-54,127,127,-67,-38,-29
15:40:16.348114,-5,1,45,127,127,46,2,-2
15:40:16.378092,27,8,-40,127,-61,19,14,19
15:40:16.379094,15,79,74,55,-128,-11,0,-5
15:40:16.379094,-44,-102,-68,1,96,-27,-29,-24
15:40:16.386087,-9,-10,5,33,-43,-32,-7,-6
15:40:16.401080,11,45,41,-20,-95,21,2,4
15:40:16.408076,1,-28,-42,-60,0,2,2,2
15:40:16.423064,-4,22,36,73,-2,-8,-9,-8
15:40:16.424064,21,-14,-64,-128,-89,-21,4,15
15:40:16.438058,-14,9,32,96,125,35,-19,-13
15:40:16.445052,43,32,6,-15,11,9,21,46
15:40:16.461046,-53,-128,-113,7,-77,-18,-16,-26
15:40:16.468040,34,57,80,109,110,3,11,13
15:40:16.483030,-25,-90,-72,92,127,10,4,1
15:40:16.484029,-63,-95,-120,-78,-52,-7,-29,-37
15:40:16.498018,38,2,22,78,127,-1,15,25
15:40:16.506015,39,127,75,-49,-128,-58,-1,7
15:40:16.521004,37,81,91,-60,127,90,17,3
15:40:16.528002,-69,-120,-67,71,-128,-3,-9,-20
15:40:16.542993,12,-112,-19,127,127,127,39,41
15:40:16.543990,55,76,81,127,-109,75,9,13
15:40:16.557983,58,84,-57,-128,-128,-38,15,26
15:40:16.565976,27,42,-67,-52,127,-16,-1,10
15:40:16.580967,-32,-41,10,10,127,127,9,-16
15:40:16.587965,55,105,-22,-128,-128,-87,9,25
15:40:16.602956,-12,-55,-31,127,91,9,2,1
15:40:16.610948,34,46,17,-35,112,-9,2,9
15:40:16.625939,6,37,48,24,-12,6,-5,-7
15:40:16.625939,11,41,34,-89,-128,-68,-10,-3
15:40:16.640931,-13,-27,-27,-59,21,27,-9,-6
15:40:16.647928,-1,-11,-25,12,127,1,-1,1
15:40:16.670911,-4,-17,18,46,12,-44,-1,2
15:40:16.670911,-20,-26,-22,-65,-87,-7,-9,-10
15:40:16.685901,-24,-33,-16,-90,-65,-32,-7,-13
15:40:16.685901,29,96,64,-77,-121,-19,3,8
15:40:16.700892,-45,-36,-18,-9,-104,-33,-20,-20
15:40:16.707949,16,-5,23,127,127,13,6,11
15:40:16.722940,5,1,-6,-128,18,-26,-1,0
15:40:16.730936,-30,-48,-83,-128,-128,-118,-12,-12
15:40:16.745925,-19,-52,-30,7,-30,93,6,-4
15:40:16.745925,11,16,21,49,69,8,3,5
15:40:16.760916,30,54,18,-6,-60,-77,0,8
15:40:16.767912,-10,-21,-3,79,-17,13,-2,-3
15:40:16.782903,-5,-21,-19,-85,-128,-38,6,2
15:40:16.790895,8,29,40,86,-23,68,5,6
15:40:16.805888,-19,-14,-20,-34,109,-57,-10,-11
15:40:16.812884,15,45,8,1,-128,-43,0,9
15:40:16.820876,7,5,1,-42,110,-8,0,0
15:40:16.827875,-3,-1,4,16,32,0,-6,-3
15:40:16.842865,-5,11,-4,-5,-97,-65,-7,-7
15:40:16.850858,-1,10,32,127,-126,50,-6,-5
15:40:16.865848,-19,-46,-8,101,127,28,-2,-8
15:40:16.865848,-30,-72,-52,6,127,-38,-5,-8
15:40:16.880842,19,34,1,-15,127,2,2,5
15:40:16.895833,7,22,30,49,-105,-19,4,7
15:40:16.902825,25,24,-26,-128,-56,-37,9,12
15:40:16.910823,-26,-61,-50,5,10,7,-2,-6
15:40:16.925812,-9,-2,5,78,100,-5,-7,-8
15:40:16.926817,11,24,1,-22,127,56,7,3
15:40:16.940803,2,6,9,90,127,27,1,-3
15:40:16.947799,-2,-14,-13,-128,-128,-27,-1,0
15:40:16.962791,2,14,7,8,62,41,-5,-5
15:40:16.970786,9,23,-6,-79,-128,-31,-3,2
15:40:16.985774,-31,-59,-4,-6,-128,3,-6,-9
15:40:16.985774,0,5,15,127,-128,-37,-3,-2
15:40:17.000765,1,7,-13,-83,-128,-107,1,2
15:40:17.007761,-8,-9,-26,-128,-128,-86,-8,-4
15:40:17.022754,-18,-42,-40,-26,-128,-4,1,-5
15:40:17.030749,24,41,-26,-128,-34,9,1,4
15:40:17.045740,-8,-13,-25,-57,-38,17,0,-3
15:40:17.045740,-34,-74,-37,58,54,8,-9,-11
15:40:17.060731,-22,-53,-33,127,127,46,-4,-6
15:40:17.067725,18,20,-3,-29,-31,42,10,12
15:40:17.090709,4,10,-5,20,-128,-11,3,0
15:40:17.091708,2,8,10,-45,-44,5,3,0
15:40:17.105702,-54,-87,-90,-67,-128,-41,-20,-23
15:40:17.105702,12,23,-34,-128,127,-30,-5,0
15:40:17.120693,10,-2,-8,127,127,-6,7,4
15:40:17.127687,9,17,9,-100,-128,-54,-6,-2
15:40:17.142680,9,6,-84,-128,-120,3,1,5
15:40:17.150672,-17,-21,39,127,127,-10,-4,-12
15:40:17.172660,-6,-11,-30,-128,-128,-43,-6,-3
15:40:17.173660,-11,-14,-73,-128,-128,-128,-18,-8
15:40:17.180656,-29,-45,-54,-107,-128,127,1,-12
15:40:17.187652,-27,-19,-9,113,-57,93,-10,-21
15:40:17.210638,24,38,31,127,-102,-69,2,11
15:40:17.211634,24,27,15,62,127,78,17,14
15:40:17.225629,-13,-23,29,-128,127,40,-1,-5
15:40:17.233623,0,2,19,127,-128,47,7,1
15:40:17.240619,4,-6,-8,-19,127,-29,3,5
15:40:17.247613,3,4,30,101,127,39,2,0
15:40:17.263602,7,21,87,127,-128,-36,7,1
15:40:17.270601,-4,-10,-10,-128,-128,-44,-4,-2
15:40:17.286591,-4,-8,-27,-29,-80,-1,-5,-3
15:40:17.286591,11,11,40,127,-99,10,8,10
15:40:17.300582,1,5,-51,-128,-128,-81,-6,-3
15:40:17.315572,-1,-4,-44,-46,-67,-20,-4,-6
15:40:17.322565,-4,-6,-29,-128,-128,-36,0,-3
15:40:17.330563,-9,-10,-20,-128,48,-10,-6,-5
15:40:17.345554,1,-2,1,-32,-61,-9,0,0
15:40:17.346553,11,4,-39,-12,-2,-87,3,7
15:40:17.360544,-9,-7,-27,-98,-73,8,-3,-5
15:40:17.368537,9,11,-56,-128,-128,-52,2,6
15:40:17.383527,-13,-15,-1,7,126,66,-10,-11
15:40:17.390525,5,5,24,28,125,-24,2,3
15:40:17.405516,17,18,33,-87,48,-29,3,11
15:40:17.405516,-3,-3,-22,-4,51,31,-1,-4
15:40:17.420507,8,5,1,-128,11,-10,1,5
15:40:17.428499,-7,-6,-26,-93,26,-26,-6,-5
15:40:17.443493,-1,7,31,-59,-52,-1,-4,1
15:40:17.450489,-5,-3,13,127,116,21,-1,-6
15:40:17.465480,0,-2,33,122,-9,-15,3,1
15:40:17.466479,-2,-3,5,-68,-68,-6,-6,-2
15:40:17.481466,1,0,-5,-90,-58,-28,2,2
15:40:17.487466,9,-2,-84,-128,-116,-17,1,3
15:40:17.503453,-9,-8,-11,-1,127,26,-4,-7
15:40:17.510451,-5,-4,-20,-62,-44,-16,1,11
15:40:17.532438,-4,-8,-21,-25,42,-1,-5,-7
15:40:17.533436,1,0,-4,-13,-20,-2,-1,3
15:40:17.540432,-1,1,-1,-17,-12,-6,-18,-3
15:40:17.548425,8,4,1,2,7,19,-6,3
15:40:17.563419,2,-4,-4,-1,-6,-12,-4,-2
15:40:17.570414,-13,-4,-8,-11,-7,-10,4,-26
15:40:17.585405,-14,-23,-19,-18,-16,-35,19,-65
15:40:17.593398,-7,-2,-4,-1,-13,-62,12,-81
15:40:17.608390,56,10,2,-1,4,57,-103,35
15:40:17.608390,-83,-5,8,12,11,-8,-75,-39
15:40:17.623379,-128,-57,-24,-23,-36,-72,21,-128
15:40:17.630377,57,45,15,10,2,-46,127,-128
15:40:17.645368,26,-27,-12,-10,-22,-89,-128,93
15:40:17.653360,43,-5,3,2,20,13,-128,127
15:40:17.668351,-88,-15,5,13,6,-17,127,-52
15:40:17.668351,-75,-49,-45,-43,-51,-105,-43,-119
15:40:17.683341,59,-7,-12,-69,-19,19,-85,3
15:40:17.690339,-32,22,33,67,-18,24,7,4
15:40:17.705331,99,47,85,127,127,57,5,78
15:40:17.713322,-22,-5,-7,127,57,-13,-30,-20
15:40:17.728314,14,32,49,13,91,127,127,-79
15:40:17.728314,-128,84,-34,-110,-128,-128,39,-128
15:40:17.743308,6,18,25,15,74,119,127,127
15:40:17.750303,95,-24,-62,-128,-4,-44,-87,87
15:40:17.765293,-48,7,64,127,127,10,37,-93
15:40:17.773285,-23,2,20,-74,-76,27,1,-21
15:40:17.788277,-46,-54,43,-74,-128,-78,-52,-56
15:40:17.788277,-120,22,-96,127,99,56,11,-59
15:40:17.803270,127,27,19,47,47,-128,-76,127
15:40:17.810262,-28,40,22,-128,-128,-114,83,-37
15:40:17.825255,127,39,24,126,112,108,-40,127
15:40:17.833252,-33,6,31,56,-54,11,62,-69
15:40:17.848239,-128,-18,13,127,-128,-31,-35,-99
15:40:17.848239,-36,5,-18,-128,127,13,9,22
15:40:17.863271,46,19,-12,37,127,90,65,51
15:40:17.870265,-85,-4,-5,8,-10,5,-94,-111
15:40:17.885257,112,48,10,1,-128,-67,-12,127
15:40:17.900248,34,10,-51,-58,13,3,84,54
15:40:17.908241,-9,-3,8,-31,-128,-24,-29,32
15:40:17.908241,8,12,12,1,-88,-40,-98,42
15:40:17.923232,37,-12,-21,55,89,-1,12,-6
15:40:17.930229,28,28,12,-128,-54,40,44,81
15:40:17.945217,-22,-6,-15,127,56,-22,-25,-1
15:40:17.953215,-1,-1,-61,22,10,84,-128,15
15:40:17.968205,-5,-4,13,-64,-128,-23,55,-15
15:40:17.968205,-9,-10,-1,64,72,8,-24,-31
15:40:17.983197,3,16,-12,-83,-128,11,-8,9
15:40:17.990191,16,-4,-3,-26,127,25,20,5
15:40:18.005183,-4,6,-17,-35,127,20,11,20
15:40:18.013178,3,-1,27,59,53,-27,-22,11
15:40:18.028169,-5,4,7,-53,-128,5,-4,-4
15:40:18.029168,8,6,32,1,-9,-39,-128,59
15:40:18.043160,-5,-2,28,73,23,7,27,-17
15:40:18.050155,-2,-1,18,35,-14,25,6,-21
15:40:18.065146,-9,4,-21,-64,-128,-44,22,-15
15:40:18.073141,-1,-13,-23,-106,90,4,-9,-20
15:40:18.088132,-5,7,26,124,127,-1,-11,-16
15:40:18.088132,3,5,17,44,-61,-28,-23,-11
15:40:18.103122,-7,0,1,-29,68,22,-9,-2
15:40:18.118113,3,-4,-1,18,77,8,-12,18
15:40:18.125107,-2,1,4,53,-2,-9,6,-6
15:40:18.133104,66,17,-5,-6,-47,19,-4,83
15:40:18.148095,-4,2,-22,61,127,33,11,-14
15:40:18.149091,-11,-11,6,25,-88,-54,-11,-19
15:40:18.163085,-19,-3,2,24,125,6,-63,-34
15:40:18.171078,12,9,-3,-18,-15,-30,-85,24
15:40:18.185070,-1,3,8,-1,-29,3,14,-5
15:40:18.201059,-11,3,5,7,-8,4,24,-1
15:40:18.208054,16,2,-4,-81,-26,-1,5,11
15:40:18.215050,0,2,-7,-128,-128,-21,-2,-4
15:40:18.223088,-7,-3,4,30,54,8,3,-1
15:40:18.231084,-9,6,-4,59,127,31,-18,4
15:40:18.246074,-12,-6,23,25,34,-22,0,-1
15:40:18.253071,5,5,2,-7,16,17,-7,-5
15:40:18.268061,3,5,0,-7,-27,3,2,0
15:40:18.269059,20,11,5,-1,-24,17,18,13
15:40:18.283052,6,-1,18,89,23,-2,-7,-1
15:40:18.290049,-11,-5,0,87,-38,-12,-8,-11
15:40:18.306038,3,-4,4,70,90,-16,-37,15
15:40:18.313033,3,3,4,24,-93,-14,5,3
15:40:18.328024,-2,1,-2,5,-48,-10,-18,-10
15:40:18.329024,9,-1,4,40,45,7,-3,64
15:40:18.343015,9,4,4,-1,19,-20,-3,2
15:40:18.351009,2,0,-5,-9,30,-10,7,18
15:40:18.366000,1,-9,-6,18,13,-10,-17,-11
15:40:18.372996,-1,1,1,25,7,1,6,2
15:40:18.387986,1,1,0,-25,-71,-11,-4,-4
15:40:18.388986,-10,-2,-5,7,-2,-2,5,0
15:40:18.402975,-3,0,2,5,-55,-12,2,-8
15:40:18.417968,0,-2,1,127,-8,-10,-1,9
15:40:18.425963,-2,-2,-7,35,-3,-7,-5,-10
15:40:18.432959,-3,-1,0,8,9,5,-7,-2
15:40:18.447949,-2,-3,-2,-16,-4,-5,1,6
15:40:18.448949,-4,-3,-2,-7,1,-1,-16,-7
15:40:18.462940,4,-2,-3,-51,-13,-1,4,0
15:40:18.470935,-5,-2,1,10,4,0,-3,-6
15:40:18.485925,5,-1,-3,-2,-4,-5,-13,1
15:40:18.492921,4,1,-1,1,-1,1,6,-3
15:40:18.507912,4,3,1,-1,-2,-2,3,2
15:40:18.515908,1,2,1,-8,-70,-21,-3,5
15:40:18.530895,-6,-4,-3,-3,5,0,-3,-7
15:40:18.530895,0,-2,-2,-4,-1,-3,-4,0
15:40:18.545889,6,3,1,-5,-3,-3,6,20
15:40:18.552883,-2,2,0,0,-4,-1,1,-3
15:40:18.567875,-3,0,1,4,-3,-9,-16,-11
15:40:18.582866,1,0,-1,-2,-6,6,23,13
15:40:18.589864,5,-4,0,-5,-1,-3,-10,21
15:40:18.590858,-1,0,1,-21,-6,0,3,-5
15:40:18.612847,-9,-6,-4,22,35,4,0,-6
15:40:18.613846,2,3,5,2,-13,-5,1,0
15:40:18.635835,-1,-3,1,-3,6,1,0,-3
15:40:18.635835,1,3,-1,-4,-8,-3,0,3
15:40:18.650821,-1,1,1,-1,-5,0,-1,0
15:40:18.650821,0,2,0,-1,-3,0,11,11
15:40:18.665812,-2,0,-5,-3,-8,-16,-16,-5
15:40:18.672809,0,-5,-4,-1,-5,-1,19,9
15:40:18.687798,-5,-3,-1,-4,-3,-3,-3,-8
15:40:18.695796,-3,-3,-2,-3,3,-1,-3,-8
15:40:18.710784,9,5,3,7,-4,2,-3,12
15:40:18.710784,5,5,4,5,9,6,4,3
15:40:18.725777,-1,-1,-3,13,-4,-4,-3,-3
15:40:18.732773,1,-2,0,9,1,1,-1,-2
15:40:18.747762,-1,-3,-2,-3,-2,-2,-7,-5
15:40:18.755759,-1,3,-3,0,-1,-2,0,-4
15:40:18.770746,7,3,0,-1,-2,2,0,19
15:40:18.770746,-3,-2,0,-1,-5,-8,-17,-4
15:40:18.785742,2,-1,-1,-3,1,2,6,6
15:40:18.792734,-6,-7,-5,-5,-5,-1,-4,-6
15:40:18.807724,-8,-6,-3,-3,-2,-2,-15,-5
15:40:18.815722,-3,-3,-3,-6,-1,-2,-7,-6
15:40:18.837705,-1,2,1,-1,-4,-4,-7,-5
15:40:18.838705,10,4,0,3,5,11,40,27
15:40:18.845703,5,-3,0,-3,-6,-21,-36,21
15:40:18.852698,-15,-5,-2,-2,-10,-43,-49,-28
15:40:18.868686,2,2,0,-2,-3,6,-3,-2
15:40:18.875685,-4,-1,-3,-9,-17,-15,-14,-9
15:40:18.890672,5,5,3,3,13,7,9,5
15:40:18.890672,-1,-1,0,-34,-3,1,1,1
15:40:18.905663,-4,-7,-2,7,-3,-1,-5,-3
15:40:18.920654,-2,-4,-5,-2,-2,-2,-3,-4
15:40:18.928649,-1,1,-1,-1,-1,0,14,-4
15:40:18.935644,5,3,3,5,1,1,-1,7
15:40:18.950635,5,3,4,5,0,-5,-20,0
15:40:18.958632,-4,-2,0,0,-1,0,3,-11
15:40:18.965626,1,0,1,0,1,-5,-2,10
15:40:18.972624,0,-2,-2,-1,-5,-10,-7,-1
15:40:18.987613,6,3,6,6,7,-8,-3,4
15:40:18.995607,0,-3,-3,-3,-1,-7,4,4
15:40:19.010601,5,-1,-5,-1,5,3,38,29
15:40:19.011601,-4,-2,-3,-4,-1,0,-9,-15
15:40:19.033586,4,2,0,2,2,-10,-15,1
15:40:19.033586,-2,0,1,-1,0,1,-3,-4
15:40:19.048577,-6,0,-1,1,-4,-7,7,-5
15:40:19.055572,-1,1,1,3,4,0,-3,4
15:40:19.070563,0,0,-2,-1,-6,1,6,2
15:40:19.070563,-3,-2,-4,-2,-5,0,-5,0
15:40:19.085554,-6,-4,1,-2,-6,-4,-3,-13
15:40:19.100545,0,3,0,1,0,6,-1,2
15:40:19.108537,-5,-1,-1,-1,2,-1,-1,-5
15:40:19.115536,0,-1,0,-2,-1,2,2,9
15:40:19.130526,-4,-1,-1,-4,-2,-5,-10,-1
15:40:19.131526,0,3,-1,3,0,-14,-38,-2
15:40:19.145517,3,2,4,3,2,1,4,2
15:40:19.153513,-4,1,-3,-2,2,-4,-1,-1
15:40:19.168502,-2,-4,-4,-4,-1,0,0,-7
15:40:19.175495,-2,-5,2,1,-2,-8,-31,-15
15:40:19.190489,0,0,-1,-3,-4,2,9,10
15:40:19.191489,-2,0,2,1,-4,0,-5,-15
15:40:19.205479,-2,-3,-1,10,14,5,1,-2
15:40:19.213475,-5,-2,-3,-26,-21,-5,-6,-5
15:40:19.228466,1,1,1,6,12,-14,-39,1
15:40:19.235461,0,-1,-3,0,4,7,12,8
15:40:19.250452,-4,-3,-4,-14,-7,0,12,-5
15:40:19.251451,-1,0,2,6,5,2,2,-3
15:40:19.265442,-5,-3,-2,-1,-2,-15,-11,0
15:40:19.273437,0,-1,-2,-3,-8,-2,9,3
15:40:19.288429,-1,-3,0,-1,-4,0,-4,-1
15:40:19.295424,1,-2,-4,1,2,1,5,-4
15:40:19.310415,-2,-2,-6,-8,-6,-20,-85,-5
15:40:19.311414,-4,-2,-6,-3,0,2,10,-5
15:40:19.325405,-4,-3,-5,-7,-7,-2,-3,-6
15:40:19.333400,1,-2,-3,-3,1,-3,-2,1
15:40:19.348391,-4,-1,-4,-4,-3,-7,0,-6
15:40:19.355387,6,3,3,6,9,16,5,-5
15:40:19.370377,2,-1,0,0,-1,-3,-9,-2
15:40:19.371377,0,-2,-2,-1,-1,3,9,10
15:40:19.385368,-5,0,1,2,1,-2,-1,-4
15:40:19.393361,0,1,1,-3,0,20,67,5
15:40:19.408351,4,0,-2,2,-2,2,7,12
15:40:19.423342,-2,-2,-1,0,0,1,1,-1
15:40:19.430337,-2,-1,-1,-3,-3,-3,-3,-5
15:40:19.431337,0,0,-2,2,0,-2,-1,-2
15:40:19.445331,2,-3,1,0,1,2,8,3
15:40:19.453323,0,0,0,-7,-4,-4,-4,-2
15:40:19.468317,-2,1,4,3,1,0,-10,-2
15:40:19.475310,0,0,0,-3,0,-2,4,2
15:40:19.491300,-1,1,-1,1,2,1,-3,-1
15:40:19.498298,-2,-2,1,-3,-3,1,8,-3
15:40:19.528279,-2,0,-5,-3,-4,1,3,-6
15:40:19.529278,3,1,-1,-2,-3,4,5,2
15:40:19.529278,-1,-3,-6,0,-6,-4,-4,-5
15:40:19.535275,-1,0,-1,0,0,3,-4,0
15:40:19.550264,-2,0,-2,1,-1,-4,-11,-6
15:40:19.558258,1,0,-4,-5,-1,-1,5,-3
15:40:19.573248,1,1,-2,0,0,1,2,5
15:40:19.573248,0,0,-2,-1,0,-4,-1,-8
15:40:19.588240,-1,-2,1,3,0,2,-3,-2
15:40:19.595236,-1,-3,-1,3,2,1,4,-3
15:40:19.611226,5,4,-1,1,0,3,10,21
15:40:19.618224,-3,0,-4,-6,-5,-4,3,-8
15:40:19.633214,-4,-3,-1,-4,-6,-4,-10,-6
15:40:19.633214,-1,0,3,-2,-2,2,4,2
15:40:19.648203,4,3,6,6,12,12,11,9
15:40:19.655199,-4,-4,-3,-1,-2,-7,-13,-7
15:40:19.670190,-1,1,0,-1,1,1,0,0
15:40:19.678187,2,-4,0,-3,-4,-5,2,5
15:40:19.693178,-1,1,3,3,4,-1,-7,-4
15:40:19.694177,1,0,0,0,1,4,-5,8
15:40:19.708168,2,-4,0,0,4,-2,-8,2
15:40:19.715160,-1,1,0,0,0,0,6,-6
15:40:19.731154,1,3,4,1,0,-1,-6,1
15:40:19.738149,-1,1,0,-3,-4,1,5,1
15:40:19.753140,-1,0,-3,-3,-3,-3,-6,0
15:40:19.753140,2,0,1,2,2,1,-3,0
15:40:19.768128,-1,-3,-1,0,1,-1,-15,-14
15:40:19.776125,0,-1,-3,-1,0,-1,-1,1
15:40:19.791114,-1,-2,1,-4,-2,0,-2,-1
15:40:19.798110,4,1,2,0,7,11,21,21
15:40:19.813100,-7,-7,-3,-7,-7,-6,-20,-8
15:40:19.814102,-1,-2,0,-3,-6,-8,-5,-8
15:40:19.835089,0,0,0,1,1,0,-1,0
15:40:19.836086,-3,0,-2,-1,0,1,1,-7
15:40:19.851077,0,-1,-2,1,0,3,13,8
15:40:19.858075,-1,-2,-3,0,-4,-6,-12,-9
15:40:19.873066,-4,-2,-2,-2,-5,-4,-3,-6
15:40:19.873066,2,0,-2,2,0,0,-3,-5
15:40:19.888057,-1,-1,-5,-2,-7,-17,-29,0
15:40:19.896051,-3,-5,-1,-3,-7,-7,10,-6
15:40:19.911042,4,3,5,4,4,4,5,9
15:40:19.918038,-1,-1,-1,-3,-3,-1,0,0
15:40:19.933026,-3,-4,-1,-1,-8,-2,2,-3
15:40:19.934025,2,1,-4,-4,1,6,1,-8
15:40:19.948019,0,-2,2,0,1,-6,-16,4
15:40:19.955014,-1,-3,0,-1,-2,-3,-4,-3
15:40:19.971005,-4,-4,-4,-5,0,-3,-8,-6
15:40:19.978001,-7,-4,-4,-5,-10,-3,5,-8
15:40:19.992992,0,-2,-4,1,-1,-2,-4,5
15:40:19.993991,-5,-1,-2,-3,-2,-8,-5,-6
15:40:20.007979,-1,-1,-2,-2,-4,6,48,1
15:40:20.015977,0,1,3,3,4,7,-4,-1
15:40:20.030968,2,0,2,-2,-3,2,4,-5
15:40:20.037960,-3,0,1,-1,0,-1,3,-4
15:40:20.060948,-4,0,-1,1,1,-3,-2,-5
15:40:20.060948,1,-2,0,2,5,-4,-13,1
15:40:20.067942,-4,0,0,0,-1,-4,-3,-9
15:40:20.075938,-3,1,-3,-3,-2,-4,-24,-6
15:40:20.090928,3,0,1,-2,3,5,-2,5
15:40:20.105920,-3,-2,-1,-3,-5,3,13,-8
15:40:20.112914,0,0,-3,2,-1,-1,-2,3
15:40:20.113916,-2,-2,-5,1,-2,-1,-2,-3
15:40:20.127908,3,0,-1,-4,-3,2,4,2
15:40:20.142898,-5,-6,-4,-3,-3,-3,-7,-5
15:40:20.150893,-2,2,-1,0,1,-4,-4,-1
15:40:20.157889,-2,-1,-4,-1,-3,-11,-22,-4
15:40:20.172880,2,0,0,1,2,4,-3,4
15:40:20.173877,3,1,-2,0,-1,-4,-1,14
15:40:20.187868,4,3,-4,-5,-1,7,22,25
15:40:20.195863,1,1,1,-1,0,0,2,-1
15:40:20.210857,-2,-2,-3,-3,-6,-2,-2,-5
15:40:20.217851,1,-2,-2,-5,-3,1,2,2
15:40:20.232840,-2,-1,-4,1,1,-5,-6,-9
15:40:20.233841,-2,1,-3,-1,0,-1,0,-3
15:40:20.255827,-3,0,-1,-1,-4,5,21,-1
15:40:20.255827,1,-1,-1,2,-2,-6,-18,0
15:40:20.270819,-1,-2,2,-1,1,0,8,1
15:40:20.277815,7,2,0,-1,2,8,6,26
15:40:20.292805,-2,-7,-1,0,-1,-1,-6,-8
15:40:20.293804,0,-2,0,-2,-3,0,4,0
15:40:20.307794,-1,-1,0,0,0,-3,-2,-4
15:40:20.315791,-2,1,1,-4,-1,-3,1,-3
15:40:20.330779,-1,0,1,-2,-5,-2,-3,-2
15:40:20.337777,-3,-4,-3,1,-5,-17,-29,-10
15:40:20.375751,-2,0,-3,-3,-2,-5,-15,-5
15:40:20.375751,4,2,2,4,5,-6,0,4
15:40:20.376753,4,-1,-2,-1,-1,0,3,7
15:40:20.377752,0,0,-2,-2,-7,0,-3,-5
15:40:20.390743,3,3,3,5,4,8,6,-1
15:40:20.397738,-1,0,-5,0,-4,-3,-1,1
15:40:20.412729,2,1,5,2,1,-3,-4,1
15:40:20.420726,-1,1,-1,0,-3,-5,-23,0
15:40:20.435714,2,1,0,0,3,8,4,2
15:40:20.435714,-3,-2,-1,3,-2,0,3,-4
15:40:20.450707,-4,-4,-3,1,-3,0,9,-10
15:40:20.457701,-3,-1,1,-3,-3,-2,-5,-4
15:40:20.472691,-5,-5,-1,-2,-3,-2,-3,-5
15:40:20.480689,0,3,-2,1,2,-1,-3,0
15:40:20.495679,1,0,0,-1,-1,-5,-7,-1
15:40:20.496679,2,0,-3,-2,0,1,4,9
15:40:20.510671,0,-1,-1,2,-2,4,4,-2
15:40:20.517667,-2,-2,-2,-1,0,1,2,1
15:40:20.533658,-4,-2,-2,-1,2,-4,-7,-1
15:40:20.540649,2,4,4,7,5,-1,-2,2
15:40:20.555640,-3,-2,-3,-3,2,6,2,2
15:40:20.555640,-5,-5,-2,-2,-8,-6,-2,-11
15:40:20.570630,-1,-4,-2,0,-5,-3,-5,-5
15:40:20.578629,2,1,2,0,-2,-5,-3,-3
15:40:20.593617,1,-1,1,-1,-2,1,4,0
15:40:20.600612,-4,-3,-3,-2,-6,-11,-27,-4
15:40:20.615605,0,4,2,1,1,2,4,2
15:40:20.615605,-3,-3,-5,-5,-9,-3,0,-1
15:40:20.630593,1,1,-2,2,-3,0,2,0
15:40:20.637593,-2,-1,-2,-3,-3,-2,-5,-5
15:40:20.653582,-3,0,-1,-1,0,-9,-17,-7
15:40:20.660575,3,1,-2,0,1,2,5,5
15:40:20.675568,-6,-4,-1,-2,-3,-4,0,-7
15:40:20.676568,0,-3,-2,-1,3,-5,-8,-4
15:40:20.690556,0,0,0,4,1,2,3,0
15:40:20.698554,-2,-3,-4,-3,-5,-4,-1,-3
15:40:20.713543,-3,3,3,-1,2,-4,-9,-2
15:40:20.720537,2,0,1,-1,-3,-5,0,1
15:40:20.735531,-6,-2,-1,-2,-7,-12,-21,-12
15:40:20.736529,1,-2,-2,0,-2,4,3,4
15:40:20.750522,-3,-1,-1,-3,1,2,0,-3
15:40:20.758513,-3,-3,-1,-2,-4,-2,-1,-1
15:40:20.780500,0,-4,0,0,-2,-2,-2,-2
15:40:20.787498,1,-1,-1,0,1,0,-3,1
15:40:20.795494,-1,-3,-1,0,0,-10,-10,1
15:40:20.796500,-5,-6,-2,-2,-1,-2,-1,-3
15:40:20.810481,-4,0,1,-3,-6,2,2,0
15:40:20.818476,3,1,0,3,5,1,-4,0
15:40:20.840466,-3,-2,-4,-4,-3,-5,-2,-4
15:40:20.841465,4,1,0,-1,0,-1,2,2
15:40:20.855454,-2,-1,-1,-1,2,0,12,-6
15:40:20.863449,-1,-3,-1,-1,-3,3,0,-3
15:40:20.870447,-2,1,2,0,2,1,-2,-3
15:40:20.878440,0,-3,-4,-2,3,-2,-4,-2
15:40:20.900429,-1,0,-5,-1,3,-2,-3,-4
15:40:20.901425,-5,-1,-4,-3,-1,-3,-3,-1
15:40:20.915416,-1,-2,2,-1,3,0,-5,1
15:40:20.916416,-2,1,-3,-2,0,1,19,7
15:40:20.930410,0,0,0,-4,-2,-3,-4,-4
15:40:20.938402,-6,-3,-3,-3,-3,-2,-5,-6
15:40:20.953396,4,-1,-3,0,1,1,-2,3
15:40:20.960388,-3,-2,-1,-2,-1,-4,3,-1
15:40:20.975382,0,-2,-4,-4,0,-1,-6,-2
15:40:20.976382,1,4,3,1,-2,-2,-5,-7
15:40:20.990370,0,-1,-1,-4,0,-4,1,9
15:40:20.998366,-1,-3,0,-1,-4,-1,2,-1
15:40:21.013356,2,-1,0,3,-3,-1,-1,1
15:40:21.020354,2,0,-1,-2,-1,5,18,0
15:40:21.035345,0,-1,-3,1,0,-1,-1,-6
15:40:21.036344,-3,-3,-2,1,-2,-3,-16,-12
15:40:21.050333,1,1,-1,-3,-1,0,-1,4
15:40:21.058328,2,0,-1,0,0,-3,-11,1
15:40:21.073319,-2,-1,-1,-3,-1,-7,-4,-3
15:40:21.088310,-2,-2,-3,1,-2,-3,3,0
15:40:21.095305,-2,0,-2,-3,4,-1,-1,4
15:40:21.096307,1,-1,-2,1,-4,-4,-3,-3
15:40:21.110295,-1,-1,0,-4,-3,-1,1,1
15:40:21.118294,-1,-1,0,-1,-4,-1,-6,-1
15:40:21.133284,-2,-4,1,0,-2,-11,-8,-2
15:40:21.140278,1,-4,-3,1,0,0,-9,-2
15:40:21.155270,2,0,-7,1,2,0,8,7
15:40:21.156267,-2,1,2,-1,-2,-7,-8,-6
15:40:21.170259,-1,-6,1,-3,-5,-3,-4,-4
15:40:21.178256,-2,0,-1,1,1,-1,-2,-2
15:40:21.193247,0,0,1,0,-3,-6,-4,-2
15:40:21.200241,3,0,0,0,-1,8,8,2
15:40:21.215233,0,-1,-1,-2,1,-1,1,-3
15:40:21.216233,-2,-2,0,0,-4,-3,-4,-3
15:40:21.231224,2,1,0,1,2,1,2,-1
15:40:21.238219,0,1,1,-2,-1,-8,-16,6
15:40:21.253210,-4,-4,-4,-5,-4,-3,-3,-6
15:40:21.261202,2,2,1,1,1,1,-4,1
15:40:21.276195,0,3,-1,-1,0,-2,1,-1
15:40:21.276195,-2,0,-1,-1,1,0,-5,-7
15:40:21.298179,-3,-1,-2,-3,-3,-5,-1,0
15:40:21.298179,1,1,1,0,-2,-2,-2,-2
15:40:21.320168,0,0,-3,0,-4,-8,-15,-3
15:40:21.321167,2,0,-1,-3,1,6,11,8
15:40:21.335160,-1,1,-2,1,0,-1,-3,-3
15:40:21.343154,0,-1,1,-1,0,-2,-3,0
15:40:21.351149,-3,-2,-4,-6,-3,-5,12,-3
15:40:21.358142,-3,0,-3,0,-2,-5,-5,-6
15:40:21.373135,-5,0,-1,-3,-4,1,1,-1
15:40:21.388126,-2,2,-1,0,-1,-6,-8,-7
15:40:21.396121,0,0,0,0,1,2,-1,0
15:40:21.403116,-4,2,-1,1,0,1,-1,-2
15:40:21.418108,0,0,-3,1,-1,-3,1,0
15:40:21.419106,3,-1,3,2,2,2,-1,1
15:40:21.433095,-6,-3,2,-3,-3,0,-4,-6
15:40:21.441090,1,-2,0,2,-2,-2,2,3
15:40:21.456081,4,1,0,0,-2,-5,-8,7
15:40:21.463077,-1,-1,-1,-2,-2,3,12,-5
15:40:21.478067,-2,-1,-3,-3,-2,-2,-2,-6
15:40:21.479068,-2,0,-1,1,-1,-4,0,-4
15:40:21.493061,4,-2,4,6,5,14,7,2
15:40:21.501056,0,0,-2,-2,-4,-3,0,-2
15:40:21.516046,-3,-2,0,0,-2,-1,0,-2
15:40:21.531038,-1,-1,0,-1,1,3,-1,1
15:40:21.538033,1,2,1,-1,-2,-5,0,1
15:40:21.538033,2,-1,-2,-2,-2,1,25,8
15:40:21.553024,-1,4,0,1,5,1,-2,0
15:40:21.561020,4,3,0,5,2,2,5,4
15:40:21.576009,-4,1,-2,-5,-5,1,3,-3
15:40:21.583005,-4,1,1,-2,0,-1,-3,-2
15:40:21.597995,-2,-3,-2,-5,-3,-8,2,-5
15:40:21.598994,-1,-3,1,-1,-6,-8,-14,-9
15:40:21.612984,-2,-1,0,-1,0,0,1,-6
15:40:21.619982,-3,-3,-4,-3,-1,3,-3,-5
15:40:21.635973,3,-1,0,0,0,-4,-11,-5
15:40:21.642966,-1,-3,-3,-2,-3,0,1,2
15:40:21.657956,-1,2,0,1,2,4,6,6
15:40:21.658958,-1,-1,0,-1,4,4,13,1
15:40:21.672949,0,-1,1,-1,-2,-1,-2,-2
15:40:21.680945,-5,0,-2,-5,-4,-3,-2,-6
15:40:21.695932,-2,1,-4,0,-4,-1,1,-3
15:40:21.702931,-1,-3,-3,-2,-1,3,-5,-1
15:40:21.717922,0,-1,1,-1,3,3,-3,-4
15:40:21.718920,-1,2,0,-1,-1,1,5,4
15:40:21.732909,0,-1,-3,1,-3,-2,-11,-3
15:40:21.740905,-2,0,-1,1,0,-3,-17,-12
15:40:21.755895,-4,-3,1,-1,0,0,0,-1
15:40:21.762891,-2,1,2,3,3,4,7,-3
15:40:21.777885,-2,2,-1,2,0,3,0,0
15:40:21.778884,-5,-3,-1,-4,-4,-5,-3,-5
15:40:21.792875,-1,1,1,-2,-2,-2,-2,-4
15:40:21.807866,1,-1,-3,0,1,-3,-1,1
15:40:21.815860,-3,-2,-2,-3,0,1,-7,-4
15:40:21.822856,-2,2,-1,-1,0,1,-1,0
15:40:21.837847,-1,0,-1,-2,0,-1,1,-3
15:40:21.838844,-1,0,0,-2,-3,0,-5,1
15:40:21.852837,-2,-3,1,-1,0,-3,1,-10
15:40:21.860831,5,2,2,-3,1,0,5,4
15:40:21.875824,-7,-3,-3,1,-4,-4,-4,-8
15:40:21.883819,0,-1,-2,0,-1,-4,-2,-2
15:40:21.897810,-3,-1,-1,-3,-3,-1,-1,-1
15:40:21.898807,0,1,3,1,-3,-8,-3,-1
15:40:21.912803,-3,-1,1,4,6,4,11,1
15:40:21.920795,3,-5,-3,0,0,1,0,1
15:40:21.935784,0,-1,-2,0,-1,-2,0,-4
15:40:21.942782,-3,1,0,-1,0,5,3,4
15:40:21.957773,-1,-2,0,-1,0,0,1,-1
15:40:21.958770,-1,-1,-2,0,-2,-1,1,-2
15:40:21.973761,1,-2,0,2,4,-1,0,4
15:40:21.980758,2,2,1,0,2,1,0,3
15:40:22.002745,0,1,2,2,2,-1,3,3
15:40:22.003744,1,-1,-2,-2,-4,-2,-19,-6
15:40:22.017735,-2,1,2,2,-1,-1,0,-1
15:40:22.018732,1,-3,0,0,0,-4,-17,-1
15:40:22.033724,-3,-4,0,-1,-2,1,-3,-4
15:40:22.040722,-1,2,0,0,-1,1,7,13
15:40:22.055712,-3,-1,-2,-1,1,1,-1,-4
15:40:22.062706,-4,-1,1,-1,1,0,-4,-1
15:40:22.078695,-2,3,-1,3,0,2,3,-5
15:40:22.078695,-1,-3,-1,-1,-3,-3,-2,0
15:40:22.093688,-1,3,-3,1,-2,0,-1,-2
15:40:22.100681,1,-3,-4,-4,-1,-1,-5,1
15:40:22.115672,0,1,-2,-2,-4,-1,-1,-4
15:40:22.122674,0,-3,1,0,-2,0,-8,3
15:40:22.137659,0,-2,-1,-1,0,-3,13,11
15:40:22.138660,1,3,2,4,1,-2,-3,5
15:40:22.153649,0,-2,-2,-3,-5,-5,-1,0
15:40:22.160647,-1,-1,-5,2,-3,-1,-3,-2
15:40:22.175638,0,0,2,2,1,-4,0,1
15:40:22.182630,1,0,0,-2,-1,-4,-3,3
15:40:22.198624,-2,-1,-2,-1,3,0,-3,-2
15:40:22.205619,-3,-2,-1,-1,-3,-3,-3,0
15:40:22.213611,1,-1,-3,0,-3,-2,-2,-1
15:40:22.220610,-3,-1,-2,1,-3,0,-3,-3
15:40:22.235601,-5,-3,-2,-2,-1,-1,-1,-5
15:40:22.243597,4,2,3,5,8,3,3,3
15:40:22.258587,1,-2,-2,-3,-3,-1,0,-3
15:40:22.265582,1,-1,-1,-2,-2,1,-7,2
15:40:22.272577,2,1,-1,1,4,5,5,3
15:40:22.280573,1,0,-2,-1,-2,-4,-3,3
15:40:22.295563,-1,0,0,0,-2,-3,-3,-6
15:40:22.302559,-2,-1,0,-2,-3,-4,-4,-2
15:40:22.318546,4,1,1,3,-3,-4,-2,-2
15:40:22.325545,-1,-2,0,-4,0,-6,-12,-4
15:40:22.340535,-2,-2,0,0,-2,0,2,-2
15:40:22.341535,-1,-1,-2,1,-3,-1,-4,-1
15:40:22.355526,0,0,-1,-1,-1,-3,-5,-3
15:40:22.363522,-1,-3,0,0,0,2,2,3
15:40:22.378512,-1,-1,0,1,-3,-5,0,-7
15:40:22.385508,1,1,1,0,-2,-2,0,0
15:40:22.400499,4,-3,-2,-1,-2,-1,2,0
15:40:22.401495,-2,-2,-2,2,-2,-3,-1,-4
15:40:22.415489,-3,-3,-5,-1,-1,1,-1,-3
15:40:22.423484,-1,-1,-2,-4,-5,-3,-4,-5
15:40:22.438474,2,-3,-2,-3,0,2,-1,1
15:40:22.445470,-3,-1,1,0,-2,-3,-2,-3
15:40:22.468456,-5,-2,-1,-3,-2,-8,-21,-4
15:40:22.468456,1,-2,0,-3,0,3,6,3
15:40:22.475452,3,1,2,5,7,5,5,-2
15:40:22.483447,-1,1,-2,-2,-1,-1,-1,-1
15:40:22.498435,0,0,1,-1,0,-1,-1,-4
15:40:22.505430,-2,-3,-1,-1,2,3,-2,0
15:40:22.520421,0,1,0,-2,1,-1,0,0
15:40:22.521425,-1,-3,-3,1,-1,-2,-1,-3
15:40:22.535412,-2,1,1,0,-2,-1,-3,1
15:40:22.543408,-2,0,-2,0,-5,-3,-5,0
15:40:22.558398,2,0,3,5,8,0,3,6
15:40:22.565396,-3,-2,1,-4,-3,-2,-3,1
15:40:22.580384,-2,-2,0,2,0,5,2,-1
15:40:22.581383,-1,-3,-3,-3,-3,-1,0,-2
15:40:22.595375,-1,-1,0,-1,-1,-3,0,-1
15:40:22.610366,3,-2,4,5,1,-1,0,3
15:40:22.618365,-2,-1,-1,-2,-3,-1,-1,-2
15:40:22.625357,-1,-2,1,1,-1,3,0,-3
15:40:22.640349,0,-4,-1,-1,-2,0,-1,2
15:40:22.641346,-1,-2,-4,-3,-6,-8,-17,-5
15:40:22.655340,2,3,-1,1,2,3,2,2
15:40:22.678324,-3,0,-1,-2,0,-4,-2,0
15:40:22.678324,0,0,-1,0,2,-3,0,4
15:40:22.685318,1,-1,3,5,10,8,1,1
15:40:22.700312,0,-2,-2,-1,0,-2,0,1
15:40:22.701312,-2,-2,-1,2,-1,-3,-3,-3
15:40:22.715300,-2,1,1,0,1,-3,2,-2
15:40:22.723297,-4,0,-2,-3,-4,-4,8,-2
15:40:22.738289,-1,-1,1,-1,-1,1,-2,-2
15:40:22.745284,-1,-2,1,-3,-1,-2,-5,-1
15:40:22.760275,-1,-4,-1,0,-3,-6,0,-1
15:40:22.761272,-3,-6,-4,-8,-8,-3,-3,-6
15:40:22.775264,0,1,-1,-2,-3,-3,-1,3
15:40:22.783269,-4,-3,-5,-4,-6,-1,-4,-1
15:40:22.805245,-1,0,-1,-2,0,-2,1,0
15:40:22.806244,0,0,-1,1,2,2,-4,1
15:40:22.820235,1,-1,-2,-3,-1,1,10,0
15:40:22.821234,-3,-3,-2,1,-2,-1,-1,0
15:40:22.835229,-2,-2,1,0,-3,-2,0,1
15:40:22.843221,-1,-1,1,-3,-2,-2,-1,-1
15:40:22.858214,0,-1,-3,-2,-4,0,0,0
15:40:22.873203,-2,1,0,1,4,0,0,1
15:40:22.880198,-1,-1,-1,-1,1,0,-2,-2
15:40:22.881197,0,-3,-3,-5,-4,-1,1,-3
15:40:22.903184,-2,-2,1,-1,-1,-4,1,-2
15:40:22.903184,2,0,-1,-3,-2,0,7,4
15:40:22.918177,1,0,0,0,-1,-2,-2,1
15:40:22.926173,-5,0,-2,-7,-11,-1,-5,-4
15:40:22.940160,-1,0,-2,-3,-1,-3,2,4
15:40:22.941160,-2,-5,-1,-3,-5,-1,-2,0
15:40:22.955164,-3,-1,-2,-1,-4,-2,-1,-3
15:40:22.963146,0,2,0,-1,0,-2,1,1
15:40:22.978140,-2,-1,1,-1,-2,-5,-1,-1
15:40:22.985132,-4,0,-2,-3,-3,1,-9,-4
15:40:23.000125,1,0,-3,-6,0,-2,1,3
15:40:23.001123,3,4,2,6,6,2,2,4
15:40:23.015117,-1,0,-3,-4,-2,-4,-5,-1
15:40:23.023109,0,-1,0,-3,-3,-2,-1,1
15:40:23.038103,0,2,1,-1,-1,-6,-1,0
15:40:23.046095,-1,1,-2,-1,-2,-1,-2,2
15:40:23.060086,-2,-1,-2,-4,-1,-1,0,0
15:40:23.068084,1,-1,0,1,-2,-1,-1,-4
15:40:23.076078,-4,1,1,0,-1,1,-1,3
15:40:23.083072,-3,-3,-2,-3,-5,-4,0,-5
15:40:23.098066,-2,-2,-1,1,0,1,0,-3
15:40:23.113053,3,-3,-4,-1,-1,-2,3,1
15:40:23.120051,1,-1,1,-1,-1,2,-1,1
15:40:23.121049,0,-2,-6,0,0,0,-2,-1
15:40:23.136039,0,1,-4,0,0,-3,0,-2
15:40:23.143035,-3,-1,-3,-1,-1,-3,-2,0
15:40:23.158026,0,-2,0,1,6,2,0,2
15:40:23.165024,-1,2,-2,0,-1,1,-2,-3
15:40:23.188007,0,-1,2,1,4,2,1,3
15:40:23.189008,0,-1,1,-1,-3,-1,0,-1
15:40:23.196007,-1,-3,0,0,0,-1,0,-1
15:40:23.202998,-2,-2,-2,-3,3,-1,11,1
15:40:23.217988,3,-1,-1,-1,5,3,0,0
15:40:23.225987,1,-1,2,3,5,9,5,2
15:40:23.240976,-2,0,-2,-2,0,-4,-3,-1
15:40:23.247970,-3,-2,-3,-3,-6,-4,-1,-4
15:40:23.262960,-3,-4,-3,-4,-2,-2,1,-2
15:40:23.263962,-2,-3,-5,-1,0,1,-1,-5
15:40:23.277954,-7,-3,-1,-5,-6,-1,-2,-6
15:40:23.285952,-1,0,-1,-1,-4,-3,0,1
15:40:23.300937,-5,-1,-1,-9,-2,0,-2,-5
15:40:23.307932,1,0,0,-2,-3,-2,-1,-4
15:40:23.322923,-4,-1,-2,1,-3,0,-4,-1
15:40:23.323924,0,1,2,-1,0,-6,-6,4
15:40:23.337914,1,3,2,4,3,0,0,-1
15:40:23.345911,3,2,4,3,4,3,5,6
15:40:23.360903,-1,-2,-4,-2,-1,-1,-1,1
15:40:23.367896,-2,-1,-3,-4,-3,1,-1,-5
15:40:23.382886,1,2,-1,-2,-2,-2,-2,-2
15:40:23.383889,0,-1,-2,-3,-2,-3,0,-1
15:40:23.397880,2,0,-1,-1,2,-2,-9,-2
15:40:23.405875,0,1,-1,3,-3,-5,0,0
15:40:23.420866,0,-2,1,1,2,0,5,0
15:40:23.427861,-3,-3,-2,-3,-3,-5,-1,2
15:40:23.442852,-2,-3,-1,0,-2,-3,1,1
15:40:23.443851,-2,-1,-3,-1,-1,-2,-1,2
15:40:23.457840,0,0,-1,-1,-1,-1,-3,2
15:40:23.465838,0,1,0,3,1,3,1,0
15:40:23.480828,-1,-3,-5,-4,-1,-3,0,0
15:40:23.487821,-1,-2,-1,2,4,-2,-2,-1
15:40:23.502815,0,-2,-2,-5,-4,-4,0,-1
15:40:23.503814,1,1,0,-1,2,-4,-2,0
15:40:23.517805,-1,2,2,0,0,-1,-3,0
15:40:23.525798,-3,-1,-3,-1,-3,-1,0,-3
15:40:23.540791,-3,-2,-1,-3,-1,-1,-5,-3
15:40:23.547786,2,2,2,2,5,2,4,3
15:40:23.562777,-7,-3,-5,-5,-6,1,-3,-3
15:40:23.563774,-1,2,-2,0,1,-3,1,0
15:40:23.578768,-2,0,0,1,-4,-4,0,1
15:40:23.585763,-2,-1,-2,-2,-1,5,-2,0
15:40:23.600754,1,-1,1,5,4,-4,1,1
15:40:23.607749,-2,-3,-1,-1,-2,0,4,2
15:40:23.622741,2,-2,-1,0,-3,-2,-1,0
15:40:23.623738,0,-2,-5,0,-1,-2,0,4
15:40:23.637729,3,0,1,2,4,0,2,5
15:40:23.645726,6,3,4,3,0,3,0,4
15:40:23.660717,-1,0,-2,-1,2,0,-1,-3
15:40:23.667710,-1,-2,-1,1,-1,1,0,6
15:40:23.682700,2,4,2,-1,-1,-1,-1,1
15:40:23.683699,0,-4,-1,-3,-3,0,-1,-1
15:40:23.698692,1,1,0,3,2,2,-3,0
15:40:23.705686,-3,2,-1,-4,-3,-3,0,-1
15:40:23.720677,-3,0,-5,-4,-5,-2,-2,-2
15:40:23.727675,5,1,0,1,-1,-6,0,4
15:40:23.742663,-3,-4,-2,1,-3,-4,-3,0
15:40:23.743663,-4,-3,0,1,-1,1,-2,0
15:40:23.758653,3,-1,0,3,4,1,3,3
15:40:23.765649,0,-2,-1,-1,-5,-2,-1,-2
