timestamp,emg1,emg2,emg3,emg4,emg5,emg6,emg7,emg8
16:27:44.643795,-2,-4,0,-3,0,1,-1,3
16:27:44.651790,5,-2,-3,-4,0,0,-1,1
16:27:44.658783,-1,-1,0,0,0,-2,-3,-2
16:27:44.673775,-2,-1,-2,-2,-4,-3,-1,-1
16:27:44.681769,-2,0,1,0,2,-3,0,1
16:27:44.695761,-1,-1,-1,0,-2,0,-1,-2
16:27:44.703756,-1,-2,-4,1,-4,-3,-2,-1
16:27:44.710750,-4,0,-1,-1,-1,-2,-1,-3
16:27:44.718747,6,-3,-2,1,-2,-1,-1,0
16:27:44.733738,-1,-1,2,0,-1,-1,-1,0
16:27:44.740733,-1,-3,0,0,-1,-4,2,-3
16:27:44.755722,-2,-1,-5,-2,1,-1,1,0
16:27:44.763718,0,1,-1,0,-1,-4,0,0
16:27:44.778709,1,0,2,-2,0,-1,1,-1
16:27:44.778709,-2,-1,-3,0,4,4,3,-1
16:27:44.793701,-1,-2,-1,-1,-2,0,-2,-4
16:27:44.800696,-4,1,0,-2,0,-1,0,3
16:27:44.816690,-2,0,2,-1,-1,-1,-5,-1
16:27:44.823684,-4,-3,0,1,3,0,0,-3
16:27:44.838675,-2,0,0,0,-1,-1,1,1
16:27:44.839672,-1,0,-1,-1,1,-2,0,0
16:27:44.853666,1,2,0,0,1,-1,-1,-3
16:27:44.860661,1,-1,-1,0,2,-1,1,-4
16:27:44.876649,0,-1,1,-1,-2,0,-3,0
16:27:44.883648,-2,-2,-1,-2,-1,0,2,-1
16:27:44.898638,-2,-1,-2,-2,-1,0,1,-2
16:27:44.899636,-1,-1,-3,1,0,-2,0,-1
16:27:44.913626,2,1,0,1,-1,0,-1,-2
16:27:44.921621,-4,-1,1,-3,0,-4,0,-4
16:27:44.936615,0,-1,-1,3,0,1,1,-1
16:27:44.943611,-1,-1,1,-1,-2,1,2,3
16:27:44.966594,-1,0,1,-7,-1,0,-1,0
16:27:44.966594,-5,1,0,1,-2,-4,-1,-2
16:27:44.973592,0,2,2,-1,2,-4,0,-1
16:27:44.981584,0,-1,0,-3,-3,-1,0,-4
16:27:44.996575,-1,-5,-5,-2,-3,1,0,-1
16:27:45.003574,2,-1,-1,-2,2,1,0,2
16:27:45.018564,2,-1,-1,1,1,-2,0,1
16:27:45.019566,-2,1,1,2,2,1,-1,0
16:27:45.033555,-2,-2,0,-1,1,-2,-2,-1
16:27:45.041547,-4,-1,1,0,-3,-1,2,-1
16:27:45.056538,-3,-1,-2,-1,-1,1,-4,1
16:27:45.063536,8,-2,0,-1,0,1,1,9
16:27:45.078527,-3,-1,-1,0,1,0,-1,0
16:27:45.079527,3,0,3,0,-3,-2,0,0
16:27:45.093518,-2,2,-1,-1,-3,-1,-1,0
16:27:45.101514,-1,-2,-3,-4,0,-2,-5,-1
16:27:45.123500,-1,0,-1,-4,-3,1,3,2
16:27:45.124496,-3,3,1,-2,-1,-5,-3,-3
16:27:45.146482,-1,-2,-1,-4,-1,0,2,-4
16:27:45.146482,-3,-1,1,0,1,0,1,0
16:27:45.153481,-1,1,-2,-2,-2,-1,-2,1
16:27:45.161474,-6,3,-1,-1,0,-2,1,-1
16:27:45.176465,-3,-2,-1,-2,-1,0,1,-5
16:27:45.184461,-3,0,1,2,1,-2,-3,1
16:27:45.199451,-2,2,2,-2,0,-3,-1,-2
16:27:45.199451,-3,-3,0,3,3,1,1,2
16:27:45.215441,2,-1,-2,-4,-3,-3,0,-1
16:27:45.221439,-1,-1,-1,2,2,-2,-2,-4
16:27:45.236430,-1,-4,-4,-2,1,-1,0,-1
16:27:45.243424,-4,-3,-1,3,-2,2,-1,-2
16:27:45.258414,-2,-1,-3,-2,-1,-4,0,-1
16:27:45.259416,-4,0,-1,-1,2,-1,-1,-2
16:27:45.273408,0,0,2,1,-2,-1,1,0
16:27:45.281400,-8,-1,0,-1,-2,1,0,-2
16:27:45.296393,-3,0,-1,0,0,-3,-1,0
16:27:45.303386,-4,-4,-2,0,-1,-1,2,-1
16:27:45.318380,-1,-2,0,-4,-2,0,1,-2
16:27:45.319377,-1,-2,-1,-1,0,-1,1,2
16:27:45.333370,-3,0,-1,-3,-3,-1,0,-3
16:27:45.341366,-2,-2,0,-1,-2,-2,-2,-1
16:27:45.356357,-2,-4,-4,0,0,0,-1,1
16:27:45.371347,3,0,-1,1,1,0,-1,-1
16:27:45.378343,0,2,-1,1,0,0,-2,-4
16:27:45.379342,-3,0,-1,-1,-2,1,0,2
16:27:45.393331,1,-1,-1,-2,-3,-2,3,1
16:27:45.401329,-5,0,2,0,0,3,-1,-3
16:27:45.423314,0,1,-1,-1,-1,-1,2,-2
16:27:45.424314,0,1,1,1,1,4,3,1
16:27:45.438305,-4,3,-2,0,-5,-1,-3,-2
16:27:45.439303,0,-1,0,-1,-1,-1,0,-2
16:27:45.453295,-2,-1,-1,2,-2,0,-3,-3
16:27:45.461289,-4,-2,2,0,-2,0,1,2
16:27:45.476280,-4,-2,-3,0,0,2,-3,-1
16:27:45.484276,-1,-1,-3,-1,-4,0,-4,-5
16:27:45.499266,0,1,-1,2,1,0,0,4
16:27:45.499266,-3,-2,0,-2,-1,-5,0,-1
16:27:45.514256,-3,-4,-1,-1,-2,-1,1,-3
16:27:45.521254,2,-2,-3,3,0,3,1,-2
16:27:45.536243,-3,0,-2,-1,-3,-1,0,-2
16:27:45.551237,-1,-2,-2,0,-1,2,0,-5
16:27:45.559238,-4,0,-1,0,0,0,-1,-3
16:27:45.559238,4,2,2,4,3,0,-1,4
16:27:45.574223,-1,1,-1,0,1,-1,-2,-2
16:27:45.581215,4,-1,0,2,0,-1,0,2
16:27:45.596208,-2,0,-1,-6,-2,1,0,0
16:27:45.604201,-1,-1,-2,-3,0,-3,-3,-4
16:27:45.619193,0,-1,-1,-1,-4,-1,1,-2
16:27:45.626190,-3,-3,0,-1,0,-3,1,2
16:27:45.634182,-7,-2,0,0,-4,-3,0,-4
16:27:45.649174,3,0,-1,0,-2,-3,2,0
16:27:45.656172,-4,-1,1,1,0,-1,1,-1
16:27:45.664166,-1,2,0,-1,0,1,-2,-5
16:27:45.679160,-5,-4,-2,-4,0,1,0,2
16:27:45.686155,0,-1,-3,-5,-2,-4,-2,0
16:27:45.701144,-1,-2,-1,0,4,0,4,-3
16:27:45.702142,-4,-3,-2,0,-1,-1,-3,2
16:27:45.716132,-4,0,-2,-1,-1,-1,-1,-3
16:27:45.724130,-2,0,2,-1,-1,1,2,1
16:27:45.739117,-2,0,1,0,0,-1,-1,0
16:27:45.746116,9,-2,-2,-3,-3,-3,-1,-1
16:27:45.761107,5,1,1,-2,1,-2,-1,1
16:27:45.762108,-1,-1,-3,-1,3,2,5,1
16:27:45.776098,-2,3,0,-1,2,1,0,0
16:27:45.784093,-4,-2,-2,-2,-2,-2,0,0
16:27:45.799081,0,0,1,-1,2,2,3,1
16:27:45.806080,-4,2,-4,-2,-5,-4,-4,-3
16:27:45.821070,2,-5,2,0,0,0,-1,1
16:27:45.822070,1,-1,-1,0,-1,1,-3,-2
16:27:45.844055,-2,-1,-2,-4,0,1,0,-6
16:27:45.844055,-1,0,-2,-3,-1,-3,1,-1
16:27:45.859044,-3,-1,0,-1,-2,-4,-3,-2
16:27:45.866040,2,0,-1,0,2,-1,3,-2
16:27:45.882031,0,-1,-3,-1,-1,0,-3,-1
16:27:45.882031,-1,0,-2,-1,-1,0,-2,1
16:27:45.896024,-5,0,0,-4,-2,-2,-5,-3
16:27:45.904017,0,0,-1,-1,-2,1,-2,2
16:27:45.919008,-1,-1,-1,-1,-2,-2,-1,-1
16:27:45.926003,0,-3,-3,0,-1,1,0,-2
16:27:45.948990,2,2,0,3,1,-2,0,2
16:27:45.949991,-2,-3,-2,-1,-2,2,-1,2
16:27:45.955987,-1,1,1,0,2,-1,2,-1
16:27:45.963982,0,-5,-3,1,-6,0,-5,-4
16:27:45.978973,-1,-1,-1,-2,1,0,-3,3
16:27:45.993964,0,-3,0,0,0,1,-1,-3
16:27:46.000959,-1,-1,-3,-2,-1,-3,0,2
16:27:46.001957,0,0,-3,-2,-1,-2,-3,-2
16:27:46.015950,-5,-1,0,2,-1,1,1,3
16:27:46.023945,-1,-3,-1,0,0,-2,1,0
16:27:46.038936,1,-3,0,2,0,0,-1,-1
16:27:46.045932,-3,0,-1,1,-1,0,-4,-1
16:27:46.068915,-2,-1,0,1,2,0,0,2
16:27:46.068915,1,-2,-1,0,-2,-1,0,-3
16:27:46.075913,-1,0,-5,1,-2,-1,-1,-5
16:27:46.083906,-2,-1,-1,-2,0,-1,-3,2
16:27:46.098899,-1,-1,0,0,0,-1,1,-2
16:27:46.105904,-1,1,1,-2,-1,2,-2,-1
16:27:46.120886,-4,-1,-2,-2,0,-1,-1,0
16:27:46.121882,-1,0,-1,-2,0,-1,-1,2
16:27:46.135876,1,0,-1,-3,0,0,-2,-1
16:27:46.143868,-1,1,2,2,0,-2,0,-1
16:27:46.158860,-7,-2,0,0,-1,-2,-4,2
16:27:46.165856,-1,-1,1,0,-1,-4,0,-1
16:27:46.180848,-3,-1,-1,-3,1,-3,-3,-2
16:27:46.181846,-3,-1,-1,0,2,-1,0,-1
16:27:46.195836,2,-3,-1,-5,-3,-2,0,-3
16:27:46.203835,2,1,1,-1,-4,-2,-1,2
16:27:46.218823,-1,-1,-1,-2,-1,-2,0,-1
16:27:46.225819,-3,-2,-1,-1,-1,-1,-1,-1
16:27:46.241812,-2,-2,1,-2,1,0,2,0
16:27:46.241812,-1,-1,0,0,-1,-1,2,-1
16:27:46.256802,2,-1,0,-2,3,2,1,-1
16:27:46.263797,-4,-5,-3,-3,1,-4,-3,-1
16:27:46.278789,-4,-1,0,-1,-2,1,0,1
16:27:46.285782,-4,-1,0,-2,-3,-1,1,1
16:27:46.300774,4,1,-4,0,1,-1,-2,1
16:27:46.301771,-3,-4,2,-2,-3,-3,-1,-3
16:27:46.316764,1,3,-1,0,3,1,0,-2
16:27:46.323761,2,-3,1,1,-3,-1,-1,2
16:27:46.338752,-1,0,-1,1,1,2,-2,1
16:27:46.345745,-2,-1,0,0,2,1,-2,-1
16:27:46.360735,0,0,1,0,-2,0,0,0
16:27:46.361734,-3,-1,-2,1,2,1,2,-2
16:27:46.375725,-3,-1,-2,0,-2,0,1,0
16:27:46.383724,2,2,0,0,-4,-5,1,0
16:27:46.405708,-1,1,-1,0,2,0,-1,-2
16:27:46.406707,-5,-3,-1,0,-1,3,-1,-1
16:27:46.421700,-1,-1,1,5,2,3,3,3
16:27:46.421700,-1,-3,-3,-5,1,-1,2,-1
16:27:46.436691,-1,-2,0,1,-4,0,-2,-1
16:27:46.443684,-3,0,-1,-1,-2,2,3,-1
16:27:46.458675,-3,-2,-3,-2,0,-5,1,-1
16:27:46.473669,0,-2,-1,1,0,3,-2,1
16:27:46.481661,-1,1,-1,-1,3,-1,0,-3
16:27:46.481661,0,-1,-1,-1,-3,-1,-3,-2
16:27:46.496653,-4,-4,3,0,-1,-1,-1,0
16:27:46.503650,3,-1,-2,-3,-2,-2,1,0
16:27:46.518639,0,0,2,-3,-1,2,-1,0
16:27:46.525637,-3,-5,-2,-2,-2,-3,0,-3
16:27:46.548622,-1,-2,0,-2,-1,0,0,-2
16:27:46.549618,0,-1,-2,1,1,0,1,1
16:27:46.563613,-4,0,-3,0,-2,-1,-1,-2
16:27:46.564610,-2,-2,-2,-3,-1,2,-1,1
16:27:46.578604,0,2,3,3,0,1,0,-2
16:27:46.586596,-3,-1,-2,-2,-1,-1,-3,-2
16:27:46.601587,-1,0,-1,-5,-4,-1,1,-1
16:27:46.608586,-7,-2,-3,3,-3,-4,0,1
16:27:46.616577,0,1,0,2,0,-2,-3,1
16:27:46.623576,-1,0,-1,-2,-4,-2,-4,-4
16:27:46.638567,-5,-2,0,-1,-3,0,-1,0
16:27:46.645564,-3,-6,-2,-2,-1,2,4,1
16:27:46.661550,1,1,-1,-1,1,1,-1,-4
16:27:46.668549,-3,-2,0,0,3,-2,-1,0
16:27:46.683540,-3,-1,0,-3,-1,0,-2,-1
16:27:46.684536,-1,-1,1,1,0,1,0,0
16:27:46.698530,0,-1,-4,-3,-4,-5,-2,-3
16:27:46.706522,-1,3,1,0,0,-2,1,2
16:27:46.721516,-2,-1,0,1,1,-2,-1,-1
16:27:46.728512,2,-3,0,1,4,1,3,0
16:27:46.743502,-2,-2,1,-2,-1,-2,1,-4
16:27:46.744499,-5,-3,-2,1,-1,-3,-2,0
16:27:46.758493,-3,1,0,1,2,4,0,-2
16:27:46.766485,-3,0,-2,1,0,0,0,-1
16:27:46.781477,1,-1,2,0,4,3,0,1
16:27:46.788475,-3,-2,-1,-4,0,2,0,0
16:27:46.803466,1,5,1,2,2,-2,2,4
16:27:46.804465,-5,-1,-1,-5,-4,0,-3,-2
16:27:46.818456,-2,-3,0,-1,1,-1,1,-1
16:27:46.826450,0,-3,-2,-3,1,-1,1,1
16:27:46.841442,-3,0,-1,0,-2,-1,-4,0
16:27:46.848437,8,-1,-4,2,0,0,-2,2
16:27:46.871421,0,-1,1,2,-6,-4,-4,-4
16:27:46.871421,1,0,-1,-1,2,0,-1,-1
16:27:46.878417,1,-1,-1,-3,-3,-2,-1,-1
16:27:46.886415,-2,-2,-2,2,5,4,1,1
16:27:46.901406,-1,-1,0,0,-1,-4,0,-3
16:27:46.908400,-5,-1,0,0,0,0,-1,0
16:27:46.923392,0,-1,-2,1,-2,-3,-2,-1
16:27:46.924388,-2,-3,-2,0,-3,-3,-4,0
16:27:46.938381,-2,-1,-1,-3,-3,1,1,-1
16:27:46.946375,-3,0,-1,-1,-3,-4,1,-3
16:27:46.961368,2,-2,3,1,1,3,0,0
16:27:46.976359,-5,-3,-3,-2,-1,-10,-6,-4
16:27:46.983355,-4,-2,1,-1,0,1,2,4
16:27:46.984351,-1,0,-3,-2,0,0,-8,2
16:27:46.999345,0,0,-4,0,0,-4,1,-1
16:27:47.006338,-1,0,0,-3,-2,-1,1,-2
16:27:47.021332,-3,3,-2,-1,-3,-1,-2,-1
16:27:47.028324,0,-1,-1,-1,-3,-4,0,2
16:27:47.043318,10,-4,1,-1,2,6,3,4
16:27:47.044314,2,5,-1,-1,-3,-1,-2,1
16:27:47.058306,-1,-3,0,1,1,-3,-3,0
16:27:47.074297,-1,-3,-1,0,3,1,2,2
16:27:47.088289,2,-1,-3,-1,-5,-4,-2,-1
16:27:47.089287,6,-1,0,2,2,7,5,1
16:27:47.103280,1,0,-2,0,-3,0,-1,-2
16:27:47.104277,-2,-1,1,-1,4,4,-1,-1
16:27:47.119268,-9,-5,-4,-1,-3,-4,1,0
16:27:47.126267,-3,-3,-1,0,3,1,4,-1
16:27:47.141258,-6,-4,-4,-4,-4,-5,-7,-4
16:27:47.149252,-2,-1,-3,0,-5,-1,0,-4
16:27:47.171239,-2,1,1,-1,-1,0,-5,0
16:27:47.172236,2,-1,0,0,1,-5,0,-3
16:27:47.178234,-2,2,1,-3,2,2,-1,0
16:27:47.186230,-2,0,-3,0,1,4,2,1
16:27:47.201221,0,-1,-3,2,0,-3,-1,-5
16:27:47.209215,-7,-4,-5,0,1,4,5,1
16:27:47.223205,-6,1,-1,1,0,2,-1,-2
16:27:47.224204,-3,0,-2,-5,-2,0,1,0
16:27:47.239194,2,1,3,1,-1,0,0,5
16:27:47.246191,2,0,0,1,0,-1,3,1
16:27:47.261184,-1,-1,-4,-2,1,-1,1,-2
16:27:47.269178,0,-2,2,-2,3,5,3,-1
16:27:47.283168,-2,0,-2,-3,-2,-5,1,-1
16:27:47.284168,0,-3,-3,-2,1,-4,2,-2
16:27:47.299160,-5,-2,-2,0,2,0,1,0
16:27:47.306156,0,0,1,0,1,-1,1,2
16:27:47.321147,1,1,1,-1,-4,-2,0,0
16:27:47.336138,-2,-4,-3,-1,2,1,0,1
16:27:47.343131,6,-1,1,2,-1,0,4,0
16:27:47.344132,2,0,-2,-1,-1,-2,0,1
16:27:47.359121,-4,-2,-2,0,6,0,-1,0
16:27:47.366120,-3,-1,-4,-3,1,0,-3,-3
16:27:47.396100,0,-1,-1,-2,0,-1,-1,-2
16:27:47.397099,-6,0,-3,-4,1,-4,2,-1
16:27:47.404093,-1,-2,-4,0,6,-3,-2,-4
16:27:47.404093,-2,-2,-2,-1,-1,-3,-2,-2
16:27:47.419086,-1,0,-1,-1,-3,-4,-2,-1
16:27:47.426082,-5,-3,-2,-3,-2,-4,-3,-1
16:27:47.441073,-2,2,2,3,-1,-4,-4,0
16:27:47.449069,-1,-3,-5,-3,-2,1,2,1
16:27:47.464056,1,-3,1,1,2,1,-3,-1
16:27:47.464056,2,3,-15,-42,-3,2,2,5
16:27:47.479050,-3,1,7,3,3,-2,-2,-3
16:27:47.486044,1,-1,-7,-1,7,7,3,0
16:27:47.501036,-3,-3,-20,-40,-9,-5,-3,0
16:27:47.509031,-6,-6,-1,6,-27,-1,-2,-2
16:27:47.524021,-2,2,-23,-9,-54,-17,-4,-3
16:27:47.539012,-16,-15,16,43,34,-5,-11,-14
16:27:47.546008,2,8,29,-24,-12,9,0,0
16:27:47.547005,15,13,-8,26,-32,-1,7,14
16:27:47.560999,1,13,37,1,-40,-3,0,-2
16:27:47.568992,-4,-21,-16,-3,76,-1,-3,1
16:27:47.583982,6,17,48,37,117,16,1,2
16:27:47.590977,-2,-10,-5,127,-69,-7,-3,1
16:27:47.605972,10,12,-1,-50,-128,-26,4,7
16:27:47.606968,-14,0,24,1,17,23,-8,-17
16:27:47.620962,-8,-17,-36,-128,-128,-57,-9,-6
16:27:47.628955,-19,-17,38,127,127,-19,-22,-14
16:27:47.643946,31,35,7,-76,16,16,17,23
16:27:47.650941,-42,-62,-112,-128,-128,-77,-21,-29
16:27:47.665935,2,-6,37,127,127,92,8,-7
16:27:47.666931,-42,-85,-21,-115,127,-79,-46,-20
16:27:47.680923,43,59,127,122,127,92,30,26
16:27:47.703908,-32,-4,60,86,127,33,-21,-21
16:27:47.703908,59,107,127,15,127,71,35,40
16:27:47.710907,34,65,127,127,127,127,35,21
16:27:47.725898,6,-52,-44,58,-100,-77,4,15
16:27:47.726894,-3,-14,-128,-49,-128,-62,-7,2
16:27:47.740887,-9,28,76,13,88,31,-6,-12
16:27:47.748884,23,7,-83,74,-128,-19,16,20
16:27:47.763872,-1,8,25,5,-6,2,-3,-3
16:27:47.770869,21,30,7,-3,-128,-1,18,18
16:27:47.785861,-47,-77,-46,25,51,-12,-17,-28
16:27:47.786860,11,47,20,-94,-55,10,7,5
16:27:47.800848,21,-19,37,127,127,68,34,31
16:27:47.808847,-12,0,-11,-127,-97,-13,-8,-7
16:27:47.830831,35,87,18,-128,-128,-16,2,7
16:27:47.831830,-75,-128,-103,-14,-128,-27,-17,-26
16:27:47.845824,20,38,28,-117,59,-3,6,8
16:27:47.846822,-30,-109,-82,-90,-128,-57,-6,-6
16:27:47.860812,-53,-87,-82,-90,-42,-59,-23,-11
16:27:47.868808,10,-26,-21,127,127,13,-5,4
16:27:47.890795,50,127,127,-128,-19,68,33,12
16:27:47.891793,-22,-24,-21,-62,52,17,-5,-7
16:27:47.905786,-107,-128,-114,-78,-128,-65,-35,-34
16:27:47.906784,-27,-46,-13,45,127,114,-7,-11
16:27:47.928773,24,36,48,-110,-13,-25,6,15
16:27:47.928773,-55,-115,-118,-128,-60,-68,-18,-20
16:27:47.943764,20,34,52,127,127,36,5,7
16:27:47.951756,25,41,-10,-128,77,72,10,10
16:27:47.966747,-21,-68,-24,-73,-128,-32,-9,-12
16:27:47.967746,-6,-3,22,65,-49,14,-7,-5
16:27:47.981737,16,26,25,52,-128,2,5,5
16:27:47.988736,-2,-5,-11,-48,127,-4,-3,0
16:27:48.003727,10,10,77,127,-41,-26,8,7
16:27:48.010722,-19,-41,-41,46,27,36,-5,-5
16:27:48.025711,24,51,21,-128,-37,-47,9,11
16:27:48.026710,16,44,63,-54,-115,-9,1,6
16:27:48.041704,-18,-22,-22,-25,-44,-10,-10,-14
16:27:48.048699,6,-11,11,127,127,25,13,10
16:27:48.063690,37,97,97,71,-29,11,8,10
16:27:48.071683,-12,-37,-51,6,-43,11,-6,-4
16:27:48.086673,-37,-54,-52,34,7,28,-17,-21
16:27:48.086673,-25,-37,-14,-4,-109,1,-5,-14
16:27:48.101664,7,14,-12,-20,38,7,3,1
16:27:48.108662,-19,-28,0,32,127,36,-4,-6
16:27:48.124649,9,18,10,87,127,20,6,4
16:27:48.131645,3,9,17,36,-117,-8,-3,-3
16:27:48.145637,-2,-14,-7,60,-128,-52,-1,0
16:27:48.146636,7,14,11,64,11,19,-1,0
16:27:48.161627,10,25,0,-52,-25,-13,-5,-1
16:27:48.168622,-3,-10,-12,-19,-128,25,0,0
16:27:48.183618,-2,-35,-49,54,86,66,4,2
16:27:48.198607,13,20,-9,0,30,-21,0,4
16:27:48.205600,-24,-42,-26,28,-111,-79,-15,-12
16:27:48.206600,-38,-53,-48,-40,-102,-20,-10,-14
16:27:48.221593,-9,-22,-13,19,-76,1,-7,-4
16:27:48.228588,-26,-62,-63,-128,-128,-48,-8,-6
16:27:48.243579,4,-3,23,121,23,68,8,4
16:27:48.251574,10,-11,-5,107,49,11,2,10
16:27:48.273558,-5,-24,-33,-128,-128,-128,-10,-2
16:27:48.274559,0,45,85,127,13,77,-6,-10
16:27:48.281553,-14,-35,-33,20,-90,31,-1,-5
16:27:48.288549,6,2,5,46,48,-14,3,4
16:27:48.303541,5,8,0,-3,127,31,4,4
16:27:48.311534,-4,-12,0,51,127,-2,4,-1
16:27:48.333521,15,21,23,127,127,44,13,9
16:27:48.334521,6,1,-8,4,126,-22,-1,4
16:27:48.341515,-13,-46,-55,-71,-114,-29,-5,0
16:27:48.348512,8,5,4,73,70,-10,1,0
16:27:48.363504,7,29,-24,-70,99,-4,-3,-1
16:27:48.371498,-17,-12,-28,-111,-128,-92,-15,-8
16:27:48.386488,-32,-40,-13,9,-128,0,-14,-15
16:27:48.386488,5,-6,-24,-32,-90,-24,0,7
16:27:48.401479,6,-2,-13,6,-24,-45,6,7
16:27:48.416471,-24,-47,-47,-24,8,-22,-9,-5
16:27:48.423465,19,55,46,-40,-58,-11,-2,2
16:27:48.438456,-5,-12,-43,-81,-58,-15,-1,1
16:27:48.446451,16,31,-19,-128,-128,-128,-2,7
16:27:48.446451,-27,-28,-14,-6,-128,20,-8,-15
16:27:48.461445,25,51,27,-95,-128,1,3,8
16:27:48.468438,-32,-57,-67,-58,30,-20,-9,-10
16:27:48.483429,30,42,55,127,127,25,14,16
16:27:48.491427,51,118,85,-18,-119,0,8,17
16:27:48.506418,-5,7,28,16,127,7,-6,-5
16:27:48.513412,35,54,52,-13,-38,2,12,19
16:27:48.521408,11,43,45,64,-32,25,-5,-2
16:27:48.528402,-39,-82,-70,-84,-128,6,-10,-13
16:27:48.551386,-45,-57,-44,-29,-34,1,-22,-25
16:27:48.551386,-25,-62,-44,127,127,-8,-2,-10
16:27:48.566381,31,59,31,-42,25,-15,10,15
16:27:48.573374,-8,-3,52,127,127,56,0,-6
16:27:48.588367,1,10,28,44,-2,7,0,2
16:27:48.589366,3,20,18,-56,-128,-53,-7,-5
16:27:48.604354,-15,-24,-38,-128,77,-30,-3,-7
16:27:48.611353,8,20,2,27,-52,-2,1,5
16:27:48.626344,17,43,31,-44,20,6,3,7
16:27:48.641334,-31,-65,-62,-64,-78,39,-8,-15
16:27:48.648330,-4,2,16,3,35,-22,-5,-5
16:27:48.649329,-17,-20,-11,-6,-111,-12,-4,-6
16:27:48.663318,-18,-28,-25,-2,-15,-9,-10,-9
16:27:48.671316,12,34,20,-10,-103,5,5,8
16:27:48.686307,-15,-32,-32,-46,127,22,-6,-8
16:27:48.693302,-8,-7,-2,37,-67,17,0,-3
16:27:48.708293,-2,-13,6,43,-14,7,8,3
16:27:48.709292,-22,-51,-35,20,118,-6,-10,-11
16:27:48.724282,-7,-11,-5,-23,-44,-11,-3,-6
16:27:48.731276,-3,-10,-13,-16,25,-37,1,1
16:27:48.746270,34,86,45,40,68,20,-3,11
16:27:48.753263,-3,-33,-17,71,-128,-15,10,7
16:27:48.768255,17,-2,3,64,127,55,10,15
16:27:48.769255,-10,-41,1,59,96,60,-5,-9
16:27:48.784246,102,127,120,-128,-128,-128,2,31
16:27:48.791242,-60,-72,-84,-95,-128,-54,-22,-16
16:27:48.813225,23,27,9,51,-128,-5,14,15
16:27:48.814225,8,4,23,-27,-128,-36,-1,2
16:27:48.828216,5,7,2,-13,-75,2,-4,-5
16:27:48.829216,12,11,20,58,-75,4,8,10
16:27:48.844208,-11,-20,-31,-46,-32,-9,-7,-8
16:27:48.851205,6,8,8,3,5,9,6,9
16:27:48.866196,-5,-5,-1,0,2,-10,7,-12
16:27:48.874187,-7,-1,-5,-1,6,-5,-63,-5
16:27:48.896177,29,11,6,9,10,-1,-27,-76
16:27:48.897177,-21,-10,7,12,21,42,-83,15
16:27:48.904169,-14,-4,-15,-19,-26,-35,-11,-72
16:27:48.911168,-59,-1,-2,-3,8,27,-9,-39
16:27:48.926159,21,37,10,3,3,-70,127,14
16:27:48.934154,-98,-68,-42,-32,-28,-3,-107,-128
16:27:48.948145,-23,31,22,8,17,20,-128,127
16:27:48.956140,-112,-1,-10,-12,-20,3,-128,0
16:27:48.963137,127,27,-13,-22,-26,0,47,8
16:27:48.971131,-128,-8,-7,-2,-7,0,104,-128
16:27:48.986122,100,10,5,5,-12,-90,102,59
16:27:48.993117,-22,-14,-6,-4,11,-3,37,-13
16:27:49.009105,10,13,3,-30,-33,-12,-65,-39
16:27:49.009105,1,11,-1,-10,-3,3,-11,-11
16:27:49.031091,-30,-74,-96,-128,-128,-35,8,77
16:27:49.032094,-25,-53,-44,-107,-19,-6,-26,-21
16:27:49.046085,-4,53,39,127,17,0,-6,-36
16:27:49.061075,72,57,4,127,117,21,13,56
16:27:49.069071,1,-117,-48,-4,71,14,-5,-30
16:27:49.069071,127,-110,3,6,-9,53,-14,6
16:27:49.084062,12,85,127,6,-128,-8,18,-36
16:27:49.091057,-114,-11,15,127,127,17,-61,-82
16:27:49.106048,17,-37,66,0,29,33,38,97
16:27:49.114043,-113,7,-40,-18,72,-45,47,-79
16:27:49.129031,2,43,50,6,-128,-26,-9,4
16:27:49.129031,29,-20,-13,-36,127,127,110,-47
16:27:49.144025,46,12,0,27,32,-43,10,90
16:27:49.151019,-21,5,17,6,-26,56,-33,-29
16:27:49.166010,-1,21,64,103,93,66,36,1
16:27:49.174003,-24,-22,-7,60,124,17,37,-48
16:27:49.188994,19,23,23,-42,-9,33,19,9
16:27:49.188994,9,11,11,59,102,-14,-14,0
16:27:49.210984,20,-12,9,-7,113,15,10,12
16:27:49.211980,-69,26,11,19,32,5,2,-5
16:27:49.225971,-9,3,-13,-25,-17,-20,25,17
16:27:49.233970,3,6,7,-8,-22,9,2,5
16:27:49.248960,-23,3,15,29,32,-7,-11,-13
16:27:49.255953,-17,-10,23,43,-77,-17,-9,-4
16:27:49.263948,10,10,-10,-81,-128,14,8,8
16:27:49.270943,0,-6,11,35,-44,22,6,31
16:27:49.285935,11,10,13,39,26,-10,16,10
16:27:49.293932,-5,8,9,10,4,-7,-7,-27
16:27:49.308920,-3,-12,-16,-7,-18,-24,-45,-15
16:27:49.308920,-15,1,-3,-28,6,5,7,-5
16:27:49.323914,8,3,-14,8,-3,3,16,15
16:27:49.338905,8,-2,-26,-38,-95,-20,0,4
16:27:49.345898,-3,-5,2,22,-59,-4,1,0
16:27:49.353896,19,-4,-3,-4,8,-2,-6,-9
16:27:49.368887,-4,-8,-2,-4,-8,13,6,-6
16:27:49.369886,12,1,-10,-7,-3,10,1,49
16:27:49.383875,-7,2,2,-21,-15,-5,-10,-20
16:27:49.390871,-1,-5,-13,0,-4,24,7,18
16:27:49.405861,3,2,1,2,3,1,-1,-5
16:27:49.413855,7,0,-3,3,10,-3,-7,9
16:27:49.428847,0,3,0,1,-46,-2,0,-1
16:27:49.435843,-9,-9,2,86,127,-1,-6,-7
16:27:49.443840,-11,2,-2,-10,16,-3,-5,-4
16:27:49.451835,23,5,3,4,1,1,4,10
16:27:49.466827,1,-2,-4,-30,-16,5,-3,0
16:27:49.473822,-9,-9,-1,5,6,-5,3,-14
16:27:49.488813,7,1,-5,-4,-7,-14,-18,4
16:27:49.503801,-8,-6,-3,-5,11,-1,0,-9
16:27:49.503801,-13,-9,-6,10,55,3,0,-3
16:27:49.510799,1,-3,5,125,6,5,5,1
16:27:49.525789,-5,-4,-2,45,35,-5,8,-2
16:27:49.533782,-8,6,3,5,14,21,12,7
16:27:49.548776,8,1,-5,-9,-10,-10,-3,16
16:27:49.555771,3,-2,-3,-5,-5,-5,0,-1
16:27:49.570761,2,-1,0,2,1,-7,-17,-17
16:27:49.571761,-1,-3,-1,-5,-5,7,-5,4
16:27:49.586752,2,0,1,-1,-2,-2,-3,-1
16:27:49.601743,-5,-3,-4,-1,-2,-3,-2,-4
16:27:49.608739,1,2,-1,2,4,4,3,5
16:27:49.616734,-4,-1,-4,-11,-3,-2,-7,-3
16:27:49.631723,-2,-3,0,6,-2,2,-8,2
16:27:49.631723,1,5,2,-2,-7,-15,-21,0
16:27:49.646715,-11,-4,-3,-33,-12,-8,-35,-15
16:27:49.653711,-5,0,2,2,1,-1,-3,-3
16:27:49.668702,-1,0,1,0,-2,1,25,1
16:27:49.676694,0,-1,-1,-2,1,1,-8,-3
16:27:49.690686,1,0,-3,-2,-2,-3,-8,-8
16:27:49.691687,-1,-1,-2,0,0,2,-1,1
16:27:49.706679,-1,-1,0,-3,-3,-3,-6,-2
16:27:49.713673,-1,-3,-4,1,-1,0,-1,-1
16:27:49.728665,1,-2,0,-6,-3,-3,1,2
16:27:49.743656,-2,-3,1,-1,2,-2,-1,-1
16:27:49.750650,-1,-1,1,-2,0,0,1,2
16:27:49.751649,2,0,0,3,2,9,4,1
16:27:49.766641,-9,-6,-4,-2,-6,-8,-3,-13
16:27:49.773637,-1,1,-3,-2,-1,4,13,17
16:27:49.788628,3,-4,0,1,-3,-3,-2,-5
16:27:49.796620,-5,-1,2,-1,1,-1,-1,-6
16:27:49.811613,-3,1,-1,0,1,4,-1,-6
16:27:49.811613,-4,-3,-1,-2,-6,2,-2,-2
16:27:49.841592,3,5,1,-1,3,0,-3,1
16:27:49.841592,2,-2,0,-1,0,-1,0,0
16:27:49.848588,0,-1,-2,-2,-2,-2,-2,-5
16:27:49.856583,-5,-3,0,-2,3,3,8,-6
16:27:49.871575,14,4,0,2,7,3,-19,11
16:27:49.871575,-4,-1,-1,-4,-2,-1,3,-4
16:27:49.886568,0,-1,-3,-2,1,-4,-2,-8
16:27:49.901559,0,3,1,1,-2,-5,2,5
16:27:49.908554,0,1,-2,1,-3,1,-2,-3
16:27:49.916549,-1,-1,-1,-2,0,-6,-5,-2
16:27:49.931537,10,3,2,1,5,9,9,-4
16:27:49.931537,3,-1,0,-1,-6,-13,-23,3
16:27:49.946531,-5,-3,-4,0,-3,1,-16,-7
16:27:49.953525,-3,-2,-1,-1,-2,4,10,0
16:27:49.968516,-1,0,-2,2,-1,-4,-1,-1
16:27:49.976512,-3,0,-1,-2,2,1,6,3
16:27:49.991500,0,-1,-1,-2,0,-5,-4,-5
16:27:49.991500,-5,-2,0,-4,-3,-4,-12,-15
16:27:50.006494,3,-2,-1,-1,-1,-8,-13,12
16:27:50.013489,1,-9,-1,-3,-4,-3,-3,-2
16:27:50.028479,-1,2,0,-1,2,-9,-23,-6
16:27:50.036475,-2,-5,-1,-3,-1,-7,-29,2
16:27:50.051463,0,3,1,0,-4,-2,4,-5
16:27:50.051463,-3,1,-1,-3,-1,2,1,-2
16:27:50.066456,1,-1,-2,-5,-2,-2,0,0
16:27:50.073450,0,-1,-3,0,-2,-5,-1,2
16:27:50.088441,0,-4,0,-3,1,-3,-3,-6
16:27:50.096436,-2,-3,-1,0,-3,4,3,-5
16:27:50.111426,-3,-5,0,1,0,-1,-4,-7
16:27:50.111426,2,-1,-1,-2,-2,-5,15,7
16:27:50.126420,-3,0,1,-1,-3,-14,-29,-8
16:27:50.141408,-1,-1,-3,0,1,-2,5,-4
16:27:50.148406,-1,1,-2,-2,3,9,0,-7
16:27:50.156402,-2,-1,-1,-2,-2,-3,1,0
16:27:50.171391,-1,0,1,2,0,-3,2,-2
16:27:50.172389,-4,-1,-1,-2,1,-2,-2,1
16:27:50.186384,-4,-3,-3,-1,-2,-8,6,-4
16:27:50.193376,1,-1,1,6,-1,-3,-5,1
16:27:50.209369,-1,2,3,3,2,2,7,-4
16:27:50.216364,-2,-3,1,3,-1,-5,-1,0
16:27:50.231355,0,1,1,1,0,-1,-5,-4
16:27:50.232357,-4,-3,1,1,2,4,3,2
16:27:50.246346,-2,-2,-1,2,-2,-2,-7,-6
16:27:50.253339,3,-3,-4,-1,-2,-4,-4,6
16:27:50.269329,0,-4,3,1,2,3,1,-5
16:27:50.276328,0,0,-5,-1,0,4,1,-5
16:27:50.291315,-3,-5,-2,-3,-3,-3,0,-8
16:27:50.292316,-3,1,-3,-2,2,0,6,-3
16:27:50.306309,-3,-2,0,-1,-2,0,-1,-2
16:27:50.313303,-2,-2,-1,-1,1,1,1,0
16:27:50.336291,-4,-4,-2,-3,-3,-2,1,-3
16:27:50.337289,-1,-3,-3,-1,0,3,-17,-4
16:27:50.351282,11,-3,-2,-1,2,11,11,12
16:27:50.358277,-5,-3,0,0,1,4,1,-2
16:27:50.366273,-2,3,0,0,-2,-4,1,-7
16:27:50.373272,0,-2,-1,-4,0,5,9,10
16:27:50.389257,-1,3,2,1,-2,-3,-6,-3
16:27:50.396254,3,1,-4,-1,1,3,0,9
16:27:50.411245,-7,0,2,1,3,4,19,-6
16:27:50.419238,-2,3,2,5,0,-4,-3,-2
16:27:50.426236,-14,-7,-3,-2,-1,-1,-2,-12
16:27:50.448220,5,-2,-3,-3,-4,-1,4,-4
16:27:50.449218,0,3,3,1,2,0,-2,-4
16:27:50.456217,-5,-2,-1,0,2,2,-3,-2
16:27:50.471208,-2,0,-2,-1,2,-1,-2,-2
16:27:50.478204,-5,-3,-2,0,-1,-2,19,-11
16:27:50.494191,6,1,-2,0,-1,6,-10,-2
16:27:50.494191,0,0,0,0,0,2,12,-2
16:27:50.509182,2,1,2,1,2,5,2,6
16:27:50.516180,-4,-5,-2,-1,-5,-10,-19,-5
16:27:50.531170,-3,1,-1,1,-4,-8,-9,-3
16:27:50.539163,8,-1,-3,1,0,4,17,7
16:27:50.554156,-1,0,-1,-1,-3,-1,2,3
16:27:50.554156,6,2,3,0,4,0,-7,0
16:27:50.569147,-1,2,-1,-3,-1,6,8,1
16:27:50.576143,-3,-3,-3,-4,-4,-1,11,-1
16:27:50.591134,0,-1,-1,-5,-4,-8,-9,-3
16:27:50.599126,-6,-5,-3,-3,-7,-1,32,-10
16:27:50.614117,4,3,2,0,0,3,-1,2
16:27:50.614117,-10,0,-1,-2,2,5,8,-1
16:27:50.629111,3,-2,-2,-3,-2,-6,4,2
16:27:50.644099,-2,-1,-4,-2,-3,1,0,-4
16:27:50.651097,1,-7,-3,-1,0,-1,-4,-8
16:27:50.666087,-1,-3,1,0,7,2,-5,7
16:27:50.674083,0,-1,-4,-1,-2,0,1,2
16:27:50.674083,2,1,2,-2,-1,-2,2,2
16:27:50.689074,-1,-2,-5,0,-3,-1,0,-1
16:27:50.696069,-1,2,-1,0,3,-3,1,-3
16:27:50.711060,0,1,-2,-1,1,1,1,-1
16:27:50.719053,6,-5,-4,-4,-4,-6,-2,-1
16:27:50.734043,-4,-2,-1,-1,-4,2,-4,-4
16:27:50.734043,0,-1,-4,-3,0,0,-1,3
16:27:50.756032,-1,1,-2,-2,-3,-13,-13,-3
16:27:50.757032,-4,0,-3,0,0,-2,-2,-5
16:27:50.771021,5,2,-1,-2,-2,2,0,3
16:27:50.779016,-5,-4,-1,-3,-3,-8,-29,-9
16:27:50.794006,0,2,1,0,-2,1,6,0
16:27:50.794006,-1,-1,0,0,-2,-13,-5,-3
16:27:50.809000,-3,-1,-1,-3,-1,-1,0,3
16:27:50.815993,2,2,-1,1,2,10,-1,3
16:27:50.830983,-1,2,-1,-4,-5,-3,0,1
16:27:50.838978,5,3,-1,0,4,2,0,9
16:27:50.853969,-2,-5,1,-1,-4,-2,8,1
16:27:50.853969,-1,-2,-3,-1,1,3,-25,-13
16:27:50.868962,9,5,-1,2,3,2,13,17
16:27:50.875956,2,-2,-1,2,0,-9,-29,-14
16:27:50.890948,1,-4,-3,-2,0,-9,-34,20
16:27:50.898942,0,2,2,1,2,3,9,-8
16:27:50.913932,-4,-1,0,-2,-1,-4,1,-7
16:27:50.913932,-2,0,-2,0,1,1,9,-2
16:27:50.928923,-1,0,-4,-1,4,4,-3,3
16:27:50.935919,-3,-5,-3,-1,1,3,2,-2
16:27:50.958905,-5,-3,-1,1,-1,2,2,-11
16:27:50.958905,-5,0,0,1,1,-1,-2,-6
16:27:50.973898,-2,0,1,0,-3,-1,17,2
16:27:50.973898,20,1,0,2,0,12,9,21
16:27:50.988889,-6,0,-1,2,-2,-10,-16,-7
16:27:50.995882,-7,-5,-3,1,-5,-2,4,-1
16:27:51.010873,0,0,-1,1,-1,-2,3,2
16:27:51.018870,1,-1,0,1,-1,1,2,2
16:27:51.033858,-5,0,-1,0,-3,-1,-7,-5
16:27:51.034858,1,-4,-1,-2,-2,-19,-23,7
16:27:51.048853,-1,2,2,1,1,2,2,8
16:27:51.055846,-3,0,2,1,6,3,1,-8
16:27:51.071837,-2,-3,0,-4,-2,-7,-7,2
16:27:51.078834,-3,2,2,-2,1,-5,-3,-1
16:27:51.093824,-3,-4,0,0,-1,0,-1,-4
16:27:51.093824,0,0,-1,1,-2,-2,-8,0
16:27:51.108816,-2,-2,-2,0,0,2,-1,-9
16:27:51.116808,-1,0,-2,-5,-5,-3,1,0
16:27:51.131801,4,-1,0,-3,4,23,27,20
16:27:51.138797,-1,0,1,1,2,-3,-22,13
16:27:51.153788,-2,-7,0,0,0,-1,9,-7
16:27:51.153788,-2,2,0,-2,1,-1,-18,-7
16:27:51.168778,-3,0,-1,-1,-3,0,3,-5
16:27:51.175774,0,0,0,-2,-2,-4,7,7
16:27:51.198760,-3,0,-1,3,1,-1,-1,1
16:27:51.199756,-2,-1,-3,0,-1,-1,-2,-4
16:27:51.213747,0,-2,-3,-3,1,3,4,-3
16:27:51.214747,-1,0,-2,-1,0,-3,0,-6
16:27:51.228738,2,0,0,-1,-1,0,6,5
16:27:51.236734,0,-2,-3,-3,-8,-27,-28,-5
16:27:51.251726,-5,1,1,-1,1,0,-1,-8
16:27:51.258723,3,2,1,3,-2,1,10,3
16:27:51.281706,4,1,0,2,0,7,12,16
16:27:51.281706,2,-1,1,-3,-1,1,-4,-1
16:27:51.295699,-4,-3,1,-2,-4,-6,-3,-4
16:27:51.296697,-2,-1,0,-2,-1,-2,-4,-4
16:27:51.311687,-4,-1,0,-4,2,-6,-16,-9
16:27:51.326681,3,1,3,5,5,-3,11,8
16:27:51.333677,4,3,-2,1,-5,-19,-46,-3
16:27:51.341669,0,-2,1,2,-3,-3,5,-3
16:27:51.356659,-2,2,-1,0,1,-1,-2,-5
16:27:51.356659,1,-3,-4,-1,-1,3,1,1
16:27:51.371650,3,0,-1,-1,1,5,0,-4
16:27:51.378649,0,3,-2,-2,0,7,10,5
16:27:51.393640,0,0,0,-4,-6,-8,-7,-4
16:27:51.401632,3,0,-3,-2,-2,-2,5,14
16:27:51.416624,10,2,1,2,1,10,3,22
16:27:51.416624,4,0,2,-2,-5,-8,-13,-7
16:27:51.431615,-2,-3,-1,-3,-1,-1,3,-3
16:27:51.438612,-2,0,-1,1,-1,-1,1,2
16:27:51.453603,5,-1,-1,0,-2,-5,-3,3
16:27:51.468594,-3,-4,2,0,-5,-1,-7,-5
16:27:51.498576,-3,-3,-2,1,3,1,9,7
16:27:51.499572,2,0,0,0,-1,7,4,2
16:27:51.500574,2,-2,-1,-1,-3,-6,1,3
16:27:51.500574,4,4,1,1,1,3,12,15
16:27:51.513566,-2,-2,-1,-5,-2,-6,-12,-4
16:27:51.521562,-6,1,-1,0,1,-7,-26,-4
16:27:51.536549,-3,-3,2,0,-6,-1,3,-3
16:27:51.536549,0,-4,1,1,3,0,4,5
16:27:51.551541,2,0,-2,-3,1,1,-1,0
16:27:51.558538,-1,0,2,-1,2,0,6,-5
16:27:51.581522,-2,1,-1,0,1,5,4,3
16:27:51.588520,0,1,1,-1,-4,-11,15,3
16:27:51.603511,0,-2,-1,1,-1,-3,-8,-5
16:27:51.604511,0,-2,-1,-1,-3,-3,0,-12
16:27:51.611502,-4,-4,-1,-2,-3,-2,-4,-3
16:27:51.618501,14,3,-1,0,4,11,2,10
16:27:51.633493,-3,-3,0,-2,0,-3,-2,-5
16:27:51.641487,-2,-3,-3,-3,-1,0,-2,-2
16:27:51.656475,0,-1,0,-1,0,4,5,1
16:27:51.656475,-8,0,-1,-1,1,1,-2,-3
16:27:51.671469,0,3,-3,1,0,4,1,-3
16:27:51.678463,0,2,1,-2,-2,1,-2,1
16:27:51.693454,-4,-2,-1,2,-3,2,-1,-1
16:27:51.701451,-2,2,-2,-2,-4,-4,-1,0
16:27:51.716438,3,3,0,0,2,7,4,7
16:27:51.716438,1,0,-2,0,0,1,9,-3
16:27:51.731432,-2,-1,-4,-4,-2,-3,-4,-5
16:27:51.738427,-1,-1,1,-3,0,-3,15,-1
16:27:51.753416,1,-3,-2,-4,0,15,17,3
16:27:51.761413,-4,1,-1,-2,-2,-4,13,3
16:27:51.776404,-2,-3,-4,-3,-2,-9,1,0
16:27:51.776404,-2,1,-1,0,-1,-5,-4,-3
16:27:51.806386,-3,-3,0,1,-1,0,14,-1
16:27:51.807382,-3,-5,-3,-1,-1,1,-4,6
16:27:51.813378,-4,-3,1,1,-2,-5,2,1
16:27:51.821377,-3,-1,-1,-1,-4,-10,-10,-8
16:27:51.836368,3,-1,-3,-3,1,0,-20,1
16:27:51.837366,-3,-4,-2,-1,-1,-5,11,-5
16:27:51.851358,-3,0,0,-1,-3,-2,2,8
16:27:51.858351,4,2,-4,-3,0,5,7,7
16:27:51.873342,2,1,1,1,-2,-3,-3,0
16:27:51.881340,-1,-1,0,2,-2,0,13,2
16:27:51.903323,0,1,1,0,0,-4,-2,-7
16:27:51.904323,-2,0,3,-2,1,-1,-5,-4
16:27:51.911321,-4,-2,0,-2,-8,-12,-39,-1
16:27:51.919315,-3,-3,-3,-2,-4,3,4,-4
16:27:51.934305,-4,0,-1,1,-1,-2,11,0
16:27:51.941303,-5,2,0,1,3,0,0,-9
16:27:51.956294,-1,0,-1,-5,-5,-4,-5,-4
16:27:51.957293,0,-3,-1,-2,-1,-1,-5,-3
16:27:51.971284,-8,0,-2,-1,-3,-3,3,-10
16:27:51.978279,2,-3,-2,-3,-4,-8,-29,0
16:27:51.994270,-2,-4,2,1,-1,-4,-11,-6
16:27:52.001266,-1,-1,-1,0,1,5,6,2
16:27:52.016257,-7,-4,-3,-3,-2,-2,8,-8
16:27:52.017256,-3,-3,-1,0,-3,4,-2,-4
16:27:52.031247,-1,-3,-1,0,-4,-3,-7,-8
16:27:52.038243,-4,-3,1,0,-2,-6,-2,-2
16:27:52.054233,4,1,-2,0,2,0,18,3
16:27:52.061229,-6,1,-2,-1,-3,-7,-5,-6
16:27:52.084212,5,2,-1,-1,0,9,45,1
16:27:52.084212,2,3,-2,-2,2,1,-6,4
16:27:52.091211,-5,-5,-1,-2,-4,-4,11,-7
16:27:52.099206,-5,0,-3,2,1,2,9,2
16:27:52.114194,-1,-3,1,-3,-2,-4,-4,0
16:27:52.121189,2,1,-4,-1,1,6,12,11
16:27:52.136183,-3,3,1,-1,-1,0,-2,-4
16:27:52.143182,-6,0,-2,-3,-2,1,-22,-5
16:27:52.151174,3,1,-1,0,1,3,4,1
16:27:52.159165,-6,-1,-2,-3,-3,-9,-7,-6
16:27:52.174156,-6,-4,3,1,0,3,5,-4
16:27:52.181155,-1,-2,-1,-3,0,0,4,2
16:27:52.196146,2,0,-1,2,-2,-4,-10,-8
16:27:52.197142,-2,-6,-6,0,-2,-5,1,4
16:27:52.211137,-2,1,0,-1,-1,-7,-14,-9
16:27:52.219128,0,-3,-6,-2,2,4,3,2
16:27:52.234123,-5,-3,-3,0,-3,1,14,-4
16:27:52.241118,11,5,-1,3,8,14,2,10
16:27:52.256109,-3,0,1,-1,0,1,7,0
16:27:52.264103,0,-1,-3,-3,-1,5,3,1
16:27:52.271100,-1,-2,-2,-1,0,-6,-1,0
16:27:52.279092,-3,-7,-4,0,4,5,0,-4
16:27:52.301081,3,1,1,-2,2,0,-2,2
16:27:52.302081,3,0,-3,3,0,5,11,21
16:27:52.316072,-1,1,0,0,-1,-14,-29,-3
16:27:52.324064,1,0,3,4,5,12,10,4
16:27:52.331063,1,0,-2,-1,-1,-9,-6,7
16:27:52.339056,-7,-4,-5,-4,-2,-2,-5,-8
16:27:52.354049,-5,2,-2,-3,-3,-3,-6,-3
16:27:52.361044,2,-3,0,-2,-3,-6,-4,-2
16:27:52.376035,1,0,2,0,0,1,4,2
16:27:52.391026,0,0,2,0,-3,-11,-17,7
16:27:52.399018,7,1,-3,-2,-1,0,0,15
16:27:52.399018,-4,0,-3,-1,0,4,20,-3
16:27:52.414012,1,1,-1,1,-2,4,-1,5
16:27:52.421007,-3,-2,-2,0,0,0,-4,-2
16:27:52.435997,-1,-1,1,1,-1,1,5,0
16:27:52.443990,-7,0,-1,0,-1,-13,-20,3
16:27:52.458981,-6,-2,1,0,-4,-3,-4,-5
16:27:52.458981,-4,-1,-2,0,-1,-2,10,0
16:27:52.473975,5,1,0,1,2,4,14,30
16:27:52.480969,-4,0,0,2,0,-7,4,-5
16:27:52.495958,-1,0,-1,-3,0,-4,-15,-1
16:27:52.503957,4,-2,1,1,3,6,10,2
16:27:52.518945,-1,1,-3,-2,-2,-4,-4,-1
16:27:52.518945,3,0,-1,-4,2,2,-12,-2
16:27:52.533938,2,1,0,2,2,5,10,3
16:27:52.540931,-1,0,-1,0,-4,-1,-3,-1
16:27:52.555921,13,0,-2,2,2,3,-11,8
16:27:52.563918,-3,-5,-3,0,-2,2,7,-4
16:27:52.578910,-1,-1,1,-3,-4,-1,-13,2
16:27:52.579909,-2,-1,-4,-2,-2,-1,1,-5
16:27:52.593901,6,0,4,0,-2,5,8,-5
16:27:52.608889,5,-1,-1,-2,0,1,-5,7
16:27:52.615888,-5,-4,0,-1,-4,-15,-23,-4
16:27:52.623880,-3,-3,-1,-1,1,5,10,-4
16:27:52.638874,1,1,0,-3,0,-6,-10,-2
16:27:52.638874,-6,1,-1,-3,-1,1,10,10
16:27:52.653864,0,2,3,-2,-3,0,7,8
16:27:52.660857,7,3,1,0,1,4,-15,13
16:27:52.683846,-7,-1,-2,-2,0,0,-4,-7
16:27:52.684845,-9,-3,0,-1,-4,-13,-14,5
16:27:52.698836,-3,-1,0,-3,-1,-2,1,-6
16:27:52.699836,-7,-4,-3,-5,-9,-9,4,-5
16:27:52.713827,-6,-1,1,-1,0,-1,-1,-5
16:27:52.720820,-3,0,-3,-2,-3,-5,-2,0
16:27:52.736813,-3,-2,-2,-2,-1,-1,-1,6
16:27:52.743806,-4,0,-3,2,1,-3,6,-5
16:27:52.758800,-1,-4,0,-1,-1,-2,-9,-1
16:27:52.759796,-1,-1,-1,-1,-1,-2,-7,-6
16:27:52.773790,3,0,0,0,-4,-13,-26,4
16:27:52.781782,5,-3,0,0,2,10,12,8
16:27:52.796776,4,-3,-1,-1,-2,1,-6,0
16:27:52.803772,-2,-1,-2,-1,-1,-4,-7,-1
16:27:52.818762,-3,0,3,-1,0,-1,-5,3
16:27:52.819759,1,1,-1,0,0,2,2,1
16:27:52.833754,6,0,-2,-2,-1,5,-9,10
16:27:52.841748,1,-4,1,2,0,4,9,5
16:27:52.863735,-4,-1,-4,-2,-1,-7,-32,0
16:27:52.864734,22,1,0,-4,-1,0,9,6
16:27:52.878723,0,0,1,2,0,2,-6,0
16:27:52.879722,0,-3,-1,0,-2,-1,0,0
16:27:52.893717,-4,0,-2,1,3,6,-4,-4
16:27:52.901708,5,2,3,4,2,15,15,23
16:27:52.916700,-1,-6,-1,0,-4,-3,-7,-3
16:27:52.923698,4,2,0,2,2,-1,-1,6
16:27:52.938689,-4,-3,-3,1,-1,-8,-13,-5
16:27:52.939687,-3,0,-1,0,0,6,10,-3
16:27:52.953680,2,1,0,2,3,1,1,5
16:27:52.961675,1,1,0,1,-1,3,1,-2
16:27:52.976666,0,1,0,-2,-1,-2,-5,-6
16:27:52.983661,-4,-3,-1,0,-1,1,-1,1
16:27:52.998652,-1,0,2,2,3,5,0,-3
16:27:52.999649,-1,-3,1,-4,-1,1,1,4
16:27:53.013643,-3,-3,-4,-5,1,2,2,0
16:27:53.021636,-2,1,0,-5,5,6,5,11
16:27:53.036626,1,-4,-4,-3,-4,1,-4,1
16:27:53.051620,0,-1,-2,-3,1,-2,6,-5
16:27:53.058615,2,2,-1,1,2,3,-12,3
16:27:53.059613,-5,-1,-2,-1,-1,-2,3,-2
16:27:53.073606,-1,-2,0,-2,0,-1,1,2
16:27:53.081598,-1,0,0,-1,0,-3,0,-2
16:27:53.096591,-4,1,-1,1,0,2,-4,-1
16:27:53.103587,-5,1,-6,-1,0,3,-10,-12
16:27:53.118578,-1,-1,-1,-1,-1,-2,-4,-6
16:27:53.119577,-2,1,-3,0,2,7,3,1
16:27:53.133567,-4,-3,0,-1,0,-3,-1,-7
16:27:53.141562,-3,-3,0,-3,-2,-2,9,-1
16:27:53.156558,1,5,0,0,1,-1,-11,-2
16:27:53.163551,-6,-5,-6,-3,-1,-5,-2,-3
16:27:53.178541,0,1,0,-2,-4,-23,-16,-6
16:27:53.179538,6,0,-2,0,2,0,13,11
16:27:53.193530,-1,1,0,1,-1,0,-4,-7
16:27:53.201527,-1,-4,-3,-3,-1,-4,-2,-4
16:27:53.223514,-2,1,1,-1,1,-1,-1,-2
16:27:53.224510,-8,-1,-1,-5,-1,-6,0,-1
16:27:53.238504,-6,3,-2,-4,-2,2,-12,-1
16:27:53.246499,-14,-2,-6,-1,-1,-4,1,-9
16:27:53.253492,-6,-4,-5,-4,-6,-2,1,-6
16:27:53.261490,1,0,3,0,0,-4,-34,6
16:27:53.283476,-1,-2,-4,-1,-2,7,1,-1
16:27:53.284473,-2,-3,0,0,1,1,2,-1
16:27:53.298468,1,1,0,0,-2,0,6,4
16:27:53.306460,0,3,0,-1,-2,3,4,9
16:27:53.321453,-5,-4,-1,1,-1,1,-5,-5
16:27:53.321453,5,-2,-1,-3,2,8,-2,2
16:27:53.336444,-3,-4,-4,2,-4,-3,-2,-3
16:27:53.343439,2,-3,-3,-4,2,-4,-1,0
16:27:53.358427,0,-1,-3,0,0,3,31,-1
16:27:53.366422,-6,-1,-2,2,1,2,-14,3
16:27:53.381415,-4,-3,-1,-1,0,-1,1,-4
16:27:53.382413,-2,-1,1,1,0,-1,-9,1
16:27:53.396407,-2,-1,1,-1,-1,-1,3,-2
16:27:53.403399,-1,-1,-1,-2,-2,0,-4,-5
16:27:53.418391,0,-2,-1,-3,-1,0,2,5
16:27:53.426386,-10,-2,-2,-3,-2,-1,5,-8
16:27:53.441376,-7,-4,-3,-3,-5,-10,-16,-10
16:27:53.442376,2,-4,-5,-2,2,4,16,16
16:27:53.456370,1,1,-2,-1,2,5,17,-7
16:27:53.463363,8,1,1,-1,3,11,5,16
16:27:53.478354,-1,-1,1,1,-1,-5,-6,-3
16:27:53.486352,-3,-1,-2,0,-3,-6,-1,-5
16:27:53.501343,-5,0,-1,3,2,0,-7,-3
16:27:53.502342,3,0,-2,0,0,-4,4,4
16:27:53.531325,-4,-1,2,-3,-4,-4,-5,-5
16:27:53.532323,-8,-4,3,1,0,-2,-2,-4
16:27:53.538317,-3,0,0,0,0,-5,-8,2
16:27:53.546311,-6,-4,-2,0,-1,-1,3,-1
16:27:53.561306,-4,-1,-3,0,2,5,7,-3
16:27:53.561306,3,-3,-3,-1,-2,-3,-10,2
16:27:53.576296,4,-1,1,-1,-1,1,19,12
16:27:53.583289,0,-3,-1,-2,-4,-1,-4,-1
16:27:53.606278,-1,-1,-2,-2,0,-4,-6,-10
16:27:53.607277,0,-1,-1,-1,1,1,-5,1
16:27:53.621268,-3,-2,0,2,-4,1,-4,-4
16:27:53.621268,1,0,0,1,-1,0,-4,-4
16:27:53.636260,-4,-1,-1,0,0,-1,-5,-4
16:27:53.651250,-9,-2,-1,3,3,5,5,3
16:27:53.658246,-2,-3,0,-3,0,3,0,-2
16:27:53.666241,-5,-1,-1,-2,-1,3,5,0
16:27:53.681230,1,1,-1,-2,-1,-7,-9,7
16:27:53.682228,2,3,0,2,2,1,5,8
16:27:53.696222,-1,-2,-4,-1,-3,-1,-3,-9
16:27:53.704215,-2,0,-4,0,1,0,0,2
16:27:53.719207,-4,0,1,-3,-4,-2,-4,-5
16:27:53.726204,-4,-2,-2,-2,-1,2,-1,-2
16:27:53.749187,-3,-4,-2,0,0,-4,-4,-5
16:27:53.749187,3,1,0,3,-1,1,2,0
16:27:53.757185,-1,0,0,-1,-2,-6,0,0
16:27:53.763180,4,-1,-1,1,2,11,34,-3
16:27:53.786164,8,5,1,4,2,2,1,8
16:27:53.787166,-10,-7,-1,-1,-2,0,2,-4
16:27:53.801158,-2,0,-3,0,-1,0,3,-4
16:27:53.802157,-1,1,-2,-4,-2,-4,-7,-2
16:27:53.816149,0,-2,-1,-1,1,-3,1,4
16:27:53.824144,-2,-2,-1,-1,0,-2,-4,-6
16:27:53.839132,-1,1,-3,-1,0,8,3,0
16:27:53.846130,-3,-1,0,-5,-1,-1,-3,0
16:27:53.861121,7,1,0,-2,0,-5,11,8
16:27:53.862118,-4,2,3,1,1,7,-6,4
16:27:53.876112,-5,-2,2,0,-2,-9,-21,-4
16:27:53.884104,-2,1,1,-2,0,-3,4,-3
16:27:53.899095,5,-2,1,-1,2,4,7,8
16:27:53.906093,-1,2,0,0,-3,-3,0,-1
16:27:53.921084,1,-3,-4,2,-3,-10,-8,-5
16:27:53.922080,-4,-1,1,-1,2,4,3,2
16:27:53.936075,-1,1,0,0,-1,-3,-7,-4
16:27:53.943071,0,-3,2,-1,-1,0,-3,-4
16:27:53.959058,-2,-1,-2,1,0,-1,1,-4
16:27:53.974052,-1,0,2,-3,-3,-5,-6,-3
16:27:53.981047,-3,-4,-3,-4,0,-6,-2,-4
16:27:53.989040,-2,-3,2,1,4,-10,-24,7
16:27:53.996038,2,-1,-2,0,1,5,1,-11
16:27:54.004030,1,3,0,1,-1,1,4,7
16:27:54.026020,-3,-1,-2,-2,0,-2,-3,-3
16:27:54.027016,-6,-3,-3,-2,0,-1,2,1
16:27:54.041010,-1,-3,-2,2,-1,4,17,3
16:27:54.056001,3,-1,-3,1,0,1,-8,-1
16:27:54.057000,0,3,1,-1,2,6,-6,0
16:27:54.063994,-1,1,0,1,3,2,-11,0
16:27:54.078987,-5,-2,0,-3,-4,-7,-5,-3
16:27:54.085981,-4,-3,-4,-5,-1,-10,-7,1
16:27:54.100971,-2,-1,-2,0,-1,1,2,-2
16:27:54.108965,1,-4,0,-2,-2,0,2,4
16:27:54.115963,1,-2,-2,-1,-3,-5,4,9
16:27:54.123957,-4,-1,-3,-2,0,5,30,-5
16:27:54.138947,10,2,4,-2,5,5,-13,6
16:27:54.153941,-5,-5,-2,1,1,-1,0,-6
16:27:54.160935,-4,-2,-1,0,-1,-2,0,-2
16:27:54.168931,-1,-1,-3,-4,0,-7,-9,4
16:27:54.175924,-5,-4,-1,0,-3,1,7,-3
16:27:54.183920,-4,-2,0,3,1,3,0,-1
16:27:54.198910,1,1,0,0,-2,-4,-2,-1
16:27:54.205905,10,0,0,-2,4,4,2,6
16:27:54.220896,0,-2,3,-2,-2,0,5,6
16:27:54.228895,-4,-1,0,-2,1,2,2,-7
16:27:54.235888,0,0,-2,-3,2,-7,1,-1
16:27:54.243885,2,-1,1,-1,0,2,5,4
16:27:54.258876,2,-4,0,-2,-1,-4,20,-4
16:27:54.265870,-1,-3,0,-1,-2,-3,-4,0
16:27:54.280860,-9,-4,-3,-3,-2,-3,-2,-5
16:27:54.288858,-3,-2,2,-2,1,7,9,0
16:27:54.303851,0,-3,-4,1,-4,-7,-6,0
16:27:54.303851,-2,-2,-1,-2,3,3,8,16
16:27:54.318839,3,2,0,3,-3,-1,-3,7
16:27:54.333830,-3,-1,-3,1,2,2,-8,-5
16:27:54.340823,1,-4,-1,-6,-2,-6,-6,-6
16:27:54.348821,-2,-1,-2,2,-1,-1,5,-2
16:27:54.363811,1,0,1,-1,-1,2,-14,-4
16:27:54.364808,-4,1,0,0,0,-4,-1,-6
16:27:54.378802,-3,-1,0,1,1,-3,-2,-5
16:27:54.385796,-3,-1,-3,-3,-2,3,0,-9
16:27:54.401786,-3,-1,-1,2,-2,-4,-18,-11
16:27:54.408784,0,0,-2,2,3,1,-14,0
16:27:54.423775,-2,-1,0,0,-3,-5,-32,-3
16:27:54.423775,-1,-3,-4,-3,-1,0,6,4
16:27:54.446758,-5,-3,-3,1,-2,-2,-3,-5
16:27:54.446758,-4,-1,0,0,0,2,-4,3
16:27:54.461752,-3,0,-3,-3,-2,3,-12,-7
16:27:54.468744,-1,-5,0,-3,0,3,5,1
16:27:54.483738,-1,-2,-2,-1,-1,-1,0,4
16:27:54.484734,1,-2,0,0,2,0,9,8
16:27:54.498729,-1,-4,-2,1,0,-4,-1,-4
16:27:54.506722,-2,-2,-3,-1,2,-5,-6,-7
16:27:54.528710,-1,-4,1,1,1,3,-1,4
16:27:54.529706,0,1,0,0,1,2,4,-3
16:27:54.551695,-2,-1,-2,-1,-2,-12,-29,-11
16:27:54.551695,-3,1,-2,-2,1,-1,-7,-1
16:27:54.558691,-6,0,0,-2,-2,-1,0,-2
16:27:54.566685,0,-1,-3,0,-2,-3,-3,-2
16:27:54.581675,2,3,-3,0,2,5,5,-1
16:27:54.588673,-2,-3,1,0,-3,-1,-1,-1
16:27:54.603664,0,0,-2,-3,0,-10,-19,2
16:27:54.604662,2,0,0,-1,0,-4,1,-2
16:27:54.618655,-1,-1,-1,0,0,-2,2,-3
16:27:54.626647,-2,0,1,0,0,0,13,-1
16:27:54.641637,-2,0,2,-1,1,1,-12,-8
