timestamp,emg1,emg2,emg3,emg4,emg5,emg6,emg7,emg8
18:51:44.151920,0,1,0,-2,-2,0,1,-1
18:51:44.170908,-3,-1,-4,-3,-4,-3,-1,-2
18:51:44.171907,1,-2,-1,-1,1,0,-1,1
18:51:44.186898,0,-3,-2,-2,-2,1,0,0
18:51:44.187900,0,-3,0,1,-2,0,0,2
18:51:44.201888,1,1,-3,-3,0,-2,-3,-1
18:51:44.209882,0,1,-2,1,-1,-3,-1,0
18:51:44.223884,0,3,-1,-4,-3,-3,-1,2
18:51:44.224873,-4,-4,-4,-5,-6,1,-1,1
18:51:44.246861,-3,-4,-2,-2,0,-2,-1,0
18:51:44.247860,2,-1,1,-1,-2,-1,1,2
18:51:44.261873,-3,-1,-1,-1,-1,-1,-1,-1
18:51:44.269847,-2,-4,-2,-2,-4,-1,-2,-1
18:51:44.284837,-2,-1,0,1,0,1,0,3
18:51:44.284837,-2,-1,-2,-3,-1,-2,1,-1
18:51:44.306822,-3,0,0,-3,-2,1,-1,0
18:51:44.307824,2,0,-1,-3,-2,0,-1,-1
18:51:44.321814,3,-1,1,0,0,-1,1,0
18:51:44.329808,-2,-4,-3,-4,0,0,-2,1
18:51:44.344806,-2,1,-1,-3,3,-1,-1,-1
18:51:44.344806,-3,2,2,0,-2,1,-1,0
18:51:44.366790,-6,0,-3,1,-1,-1,-1,0
18:51:44.367786,4,-4,-3,-2,-2,-3,0,2
18:51:44.381779,-3,1,-2,-1,4,2,-1,-1
18:51:44.389770,-1,-1,0,-1,-2,-3,-6,-1
18:51:44.404763,-2,1,-1,1,-3,0,-3,3
18:51:44.404763,1,2,-1,-1,0,0,-3,-1
18:51:44.426748,2,0,0,2,-1,-4,1,0
18:51:44.427749,-3,-1,-5,0,-3,-2,-2,-3
18:51:44.449735,-6,0,-1,1,-2,0,1,-1
18:51:44.449735,2,0,2,3,7,1,3,0
18:51:44.464724,-1,1,-3,0,-3,-1,0,-5
18:51:44.464724,12,2,1,-3,-1,-1,2,4
18:51:44.486711,-2,-1,0,0,2,-1,-1,-5
18:51:44.487712,6,1,1,0,1,-2,1,2
18:51:44.509698,-4,1,-1,-3,0,-1,-2,-3
18:51:44.509698,-2,1,0,2,0,1,-2,-1
18:51:44.524688,0,0,1,0,-1,-1,0,-1
18:51:44.524688,2,0,1,-2,-3,-1,-1,-2
18:51:44.546674,-4,-3,-2,1,-3,1,-1,-2
18:51:44.547674,7,0,-3,-1,0,-3,-2,-5
18:51:44.569661,1,-3,-1,-3,1,-1,-3,0
18:51:44.569661,-2,1,2,2,-1,0,-2,0
18:51:44.584654,-1,-3,-4,-5,-3,2,1,-2
18:51:44.585652,-2,0,0,0,0,0,0,-1
18:51:44.607637,1,2,0,0,1,-2,-4,-7
18:51:44.607637,0,0,1,-2,-1,-3,-2,0
18:51:44.629626,2,2,2,1,0,-2,1,3
18:51:44.630622,-3,-1,-1,-1,0,0,0,-1
18:51:44.644616,-1,-3,2,-2,1,-4,-1,-4
18:51:44.645615,-3,-4,0,-1,0,-6,-3,-4
18:51:44.667602,2,0,-1,0,-5,-2,-1,0
18:51:44.667602,-3,-3,0,1,-3,-1,0,-2
18:51:44.689588,-1,-1,-3,-3,-5,2,1,0
18:51:44.690586,-3,-2,-3,-1,-3,0,-2,-4
18:51:44.704580,2,0,-1,-1,2,0,0,-2
18:51:44.712574,1,0,0,0,-1,1,1,-1
18:51:44.727562,-5,-5,-2,-2,-1,-4,-4,-2
18:51:44.727562,-1,2,-2,-1,-3,-1,0,-1
18:51:44.750549,-3,-4,0,-2,-1,1,1,-1
18:51:44.757546,0,-1,-3,0,1,-3,-2,-1
18:51:44.765539,-3,2,-2,-2,-3,0,-3,0
18:51:44.772537,-3,-1,-3,0,2,1,2,-1
18:51:44.787524,0,-4,-2,-1,-5,-1,1,-1
18:51:44.788524,-1,-2,-1,-2,0,1,-1,-3
18:51:44.809514,1,-3,-3,-3,1,-4,-1,1
18:51:44.810510,1,0,-1,-1,-3,-1,-5,0
18:51:44.824503,4,1,2,0,1,0,2,0
18:51:44.832497,2,0,1,1,-2,-2,-1,-1
18:51:44.847491,11,4,2,2,1,2,2,3
18:51:44.848487,-3,-1,-3,0,2,-2,2,-2
18:51:44.869477,1,-3,1,-3,0,-2,-2,1
18:51:44.870473,-3,-4,-4,1,-2,0,-5,-2
18:51:44.884465,0,-3,-1,-1,-1,0,0,1
18:51:44.892463,-2,-1,1,2,-2,-2,-1,1
18:51:44.907451,2,-3,2,-1,0,0,0,1
18:51:44.907451,-4,0,-1,-3,0,2,-1,-2
18:51:44.929439,0,-2,-4,1,0,0,0,0
18:51:44.930439,-1,0,0,-1,-2,1,0,0
18:51:44.944428,-2,-3,-3,-5,-3,-2,0,-4
18:51:44.952425,-3,-3,0,1,3,-1,1,-3
18:51:44.967415,-2,1,-1,0,2,0,2,-1
18:51:44.967415,-3,-3,-3,-2,2,-2,-1,-3
18:51:44.989400,-1,-2,-3,1,-1,-2,0,0
18:51:44.990402,0,1,-2,1,-2,0,0,1
18:51:45.005391,2,-1,-2,-3,-3,-4,-1,-1
18:51:45.012388,0,1,-2,2,2,1,1,1
18:51:45.034372,0,-1,0,0,0,-4,-2,-3
18:51:45.035374,-3,-4,-2,-3,2,0,-1,-1
18:51:45.049363,0,-1,-2,-2,-2,-1,-2,-1
18:51:45.050365,1,2,-1,1,1,-4,0,-3
18:51:45.072347,0,-2,-3,0,-4,-1,0,-1
18:51:45.072347,3,2,0,-1,0,-1,2,0
18:51:45.087339,-4,-4,-2,-4,-2,1,0,1
18:51:45.088341,-1,1,-1,0,0,-1,3,1
18:51:45.109325,0,-1,-2,-3,-2,-4,1,-3
18:51:45.110325,-3,1,0,-1,-4,-2,-2,-3
18:51:45.125315,-6,-3,-3,1,-1,-1,-4,-2
18:51:45.132312,-2,1,1,-2,0,-1,-1,1
18:51:45.147305,-1,-4,-1,-1,-1,1,3,-1
18:51:45.148303,-2,1,-2,-1,-2,2,1,1
18:51:45.170288,3,0,-2,1,3,1,0,-3
18:51:45.170288,-1,1,-1,-1,-4,-2,2,-1
18:51:45.184278,2,1,0,3,-1,0,-1,-1
18:51:45.192275,-1,-2,0,-3,0,0,1,-1
18:51:45.207264,0,1,-1,-3,-5,-3,0,1
18:51:45.207264,3,2,1,0,0,-2,-5,-2
18:51:45.229250,-4,-5,-1,-2,-4,-2,1,1
18:51:45.230251,-3,-1,-2,-2,-2,-3,-3,-2
18:51:45.244249,-1,0,2,-2,1,-3,-2,-3
18:51:45.252238,0,0,-2,-1,0,-1,0,2
18:51:45.267228,2,-1,-1,2,2,-3,1,0
18:51:45.267228,0,-1,-3,-1,0,0,-1,0
18:51:45.289214,2,-2,-5,-1,0,-1,-1,0
18:51:45.290213,0,-3,-2,-1,-4,1,2,0
18:51:45.305207,-5,3,1,-3,-1,0,2,-2
18:51:45.312202,-1,-4,-1,1,-1,-1,-3,-1
18:51:45.327193,2,0,1,0,3,-4,-4,-4
18:51:45.328192,-2,0,0,-2,1,1,-4,-2
18:51:45.350177,-1,-1,-2,-3,1,-2,0,1
18:51:45.350177,-4,-4,-1,-2,2,-1,0,1
18:51:45.372165,-4,0,0,4,-2,-1,-3,-1
18:51:45.373161,1,-3,-2,-2,-2,-2,4,1
18:51:45.387156,3,2,2,3,0,2,2,2
18:51:45.388152,2,-1,-2,-1,0,-1,-2,1
18:51:45.409142,0,-3,-2,-2,0,2,2,-1
18:51:45.410138,-2,-3,-1,0,-2,0,-1,-3
18:51:45.432126,1,-1,-1,-3,-1,-1,-3,-2
18:51:45.433126,-1,-2,-1,-3,-1,0,1,-2
18:51:45.448116,-1,-2,-2,0,3,1,0,-2
18:51:45.448116,-3,-1,-3,0,-1,-1,-1,-2
18:51:45.470102,-3,-4,-2,-2,2,-2,-4,-3
18:51:45.470102,-1,-2,0,-1,-2,-3,0,3
18:51:45.492091,-1,-1,-2,-2,3,1,-2,0
18:51:45.493089,-3,-2,-3,-2,-1,-3,-1,0
18:51:45.507081,-3,0,-2,1,-2,-3,-1,-1
18:51:45.508077,-4,1,-3,0,0,-1,-2,-3
18:51:45.530064,1,0,0,-3,-2,-2,0,-1
18:51:45.530064,-4,-4,-1,-1,-1,-4,-1,-2
18:51:45.552054,-1,0,-1,-1,2,-3,-2,-1
18:51:45.553053,2,-1,-1,1,-3,-2,-1,1
18:51:45.567044,1,-1,1,0,0,1,-1,0
18:51:45.568040,-2,-1,-2,-1,-3,-2,2,-3
18:51:45.590027,-7,-3,-3,-4,-3,-2,-2,-2
18:51:45.590027,-1,0,0,-1,0,-1,-3,-1
18:51:45.612016,-3,-1,-1,1,0,-1,-1,-1
18:51:45.613015,-1,-2,-2,-3,-2,-1,0,1
18:51:45.627006,1,0,-4,0,-1,2,0,-2
18:51:45.635002,-3,1,1,1,-1,0,1,2
18:51:45.649990,-3,-3,-2,-1,-2,1,-1,-2
18:51:45.650991,1,-1,0,-1,-2,-2,0,0
18:51:45.671976,2,-1,0,-1,-1,1,-2,-1
18:51:45.672975,3,0,0,-3,-4,2,0,0
18:51:45.686967,1,-2,4,-3,2,0,-1,-1
18:51:45.694961,0,1,1,-3,1,-1,-1,-3
18:51:45.709952,0,-1,-1,-1,0,-1,-2,-1
18:51:45.709952,-2,-1,1,-1,-2,-2,-1,-3
18:51:45.731942,-1,1,1,2,4,2,5,-1
18:51:45.732941,-3,0,0,-1,-1,1,0,-5
18:51:45.746929,-1,-1,-3,0,0,0,0,0
18:51:45.754928,-1,1,3,-1,-1,0,1,2
18:51:45.769916,-2,-1,0,0,0,0,2,-1
18:51:45.770915,-3,1,0,0,2,-1,0,-3
18:51:45.791905,-1,-4,-2,-5,-1,-1,-1,-2
18:51:45.792904,-1,1,-3,0,-1,-1,-1,-2
18:51:45.806893,-1,-2,0,2,-1,0,-1,0
18:51:45.814887,-3,-1,0,1,1,-1,1,0
18:51:45.829878,1,1,0,4,0,-2,-1,-2
18:51:45.829878,0,0,-1,0,1,0,3,0
18:51:45.851868,-1,0,0,-1,-2,-3,-2,0
18:51:45.852867,2,-1,0,-1,3,0,-2,0
18:51:45.866856,-5,3,0,-3,0,-2,-1,-1
18:51:45.874854,-2,0,-3,1,-3,2,-2,-2
18:51:45.889844,-3,0,0,1,-4,-4,0,-2
18:51:45.890840,-2,-1,0,0,3,-1,1,1
18:51:45.911827,1,0,2,1,3,0,-2,-1
18:51:45.912829,0,0,-2,-2,0,-4,-1,0
18:51:45.927821,-1,-1,-3,-2,0,-2,-1,1
18:51:45.934817,-2,2,4,1,0,0,1,-1
18:51:45.949807,1,4,-2,-1,0,-1,0,-1
18:51:45.950805,-4,0,-2,-2,1,-4,-6,0
18:51:45.971791,-1,0,0,0,-4,-1,-2,0
18:51:45.972789,-1,4,2,4,2,-1,1,-1
18:51:45.987782,-1,-2,-4,-1,-2,-2,0,-2
18:51:45.994779,-1,-1,-2,0,2,0,-2,0
18:51:46.009770,-5,-4,-3,-3,-4,0,0,-2
18:51:46.010768,-3,-2,-1,0,-1,-1,-1,-1
18:51:46.031755,-4,-4,-1,-1,-2,-3,-2,-2
18:51:46.032752,-4,-2,0,-2,-2,-2,0,-1
18:51:46.047744,-2,2,0,1,-1,-2,-3,-1
18:51:46.054742,0,2,-1,-2,-5,-2,0,0
18:51:46.069732,0,3,1,2,-2,-2,-2,3
18:51:46.070731,-3,-2,-1,-2,-1,-1,0,-1
18:51:46.092718,-3,1,-1,1,2,-2,3,0
18:51:46.092718,-6,2,-1,1,-1,-1,-3,-1
18:51:46.107705,-1,-1,-2,1,-3,-4,0,-1
18:51:46.114702,-7,-1,-3,-2,-2,-3,-3,-3
18:51:46.137687,-1,1,-2,-5,2,1,3,1
18:51:46.137687,-2,-3,-3,-3,-4,-1,-3,2
18:51:46.152678,-2,-1,0,1,-1,-2,0,-4
18:51:46.152678,-1,-1,0,2,2,-1,-5,1
18:51:46.167672,-1,-3,-2,-1,0,-2,-2,-1
18:51:46.174667,-4,-1,-1,-2,-1,-2,-2,-2
18:51:46.189658,-5,-4,-7,-6,-5,-4,2,-1
18:51:46.190654,-1,2,0,0,0,2,1,3
18:51:46.212641,-5,0,-1,0,-5,-1,-5,-5
18:51:46.212641,-3,-2,0,-2,0,1,-1,-4
18:51:46.227632,1,0,1,-1,1,3,0,3
18:51:46.234630,1,-1,-3,0,-1,-2,0,-1
18:51:46.249621,-5,-1,-2,-1,0,-3,-2,-1
18:51:46.250618,-1,-2,0,-1,0,0,-1,-1
18:51:46.272606,-2,-2,-3,-3,-1,1,-1,2
18:51:46.272606,-6,-5,-1,2,1,3,-1,-3
18:51:46.294593,0,-2,-1,1,-4,-1,0,1
18:51:46.295592,-2,0,-4,-1,-2,-1,-2,-2
18:51:46.309584,1,0,-1,-3,1,-1,2,0
18:51:46.310580,2,-1,-2,1,0,0,1,-1
18:51:46.332567,-2,0,-3,1,4,-3,1,0
18:51:46.332567,7,1,0,0,-4,-2,-1,0
18:51:46.354553,2,0,2,5,9,5,4,0
18:51:46.355553,-1,0,0,-2,-4,-3,-6,-2
18:51:46.369546,-1,-1,-2,1,-3,0,0,-2
18:51:46.370545,-1,-1,-1,9,24,5,-1,-2
18:51:46.392529,0,3,1,-5,-28,1,3,1
18:51:46.392529,-1,-1,-4,-2,12,3,1,-3
18:51:46.414516,1,-1,-3,1,2,-4,0,-1
18:51:46.415515,-3,-3,-2,-14,-8,-4,-1,-1
18:51:46.429507,-2,0,-4,-15,-2,0,-1,-1
18:51:46.430505,-1,-1,2,5,-1,-2,-4,1
18:51:46.452492,3,0,-3,-4,0,0,-2,-1
18:51:46.452492,2,-5,-2,0,-1,-4,-2,2
18:51:46.474479,-3,-1,0,1,-3,-1,-1,-1
18:51:46.475481,-3,-2,0,1,-1,-2,-2,-1
18:51:46.489469,-3,0,0,-2,-5,-2,-1,-2
18:51:46.490469,2,-1,-3,-9,5,2,-2,0
18:51:46.512456,-4,-3,3,0,22,0,0,-1
18:51:46.513455,1,3,0,9,10,1,-3,1
18:51:46.534444,1,-2,-1,-2,3,-1,0,1
18:51:46.535443,1,0,0,-3,2,-1,0,-1
18:51:46.549435,-7,0,1,2,-2,-1,-4,-5
18:51:46.550434,1,-1,-2,-1,-5,-2,-1,1
18:51:46.572417,1,4,1,-8,0,-7,-2,0
18:51:46.572417,-4,1,5,4,7,-2,-5,0
18:51:46.594407,0,-2,-4,2,3,3,0,1
18:51:46.595404,-8,1,0,2,-2,-2,-2,1
18:51:46.609398,-2,-1,-1,-4,-45,0,-1,0
18:51:46.610397,-1,-1,-5,-10,3,-5,-1,-6
18:51:46.632384,-4,-4,0,1,-4,-3,-6,0
18:51:46.632384,-5,1,-1,-2,-3,-4,-1,-4
18:51:46.654370,-2,0,-1,-6,1,1,-2,-2
18:51:46.655368,0,3,1,10,6,1,1,-2
18:51:46.669360,2,-1,-2,-3,-1,2,1,2
18:51:46.670360,-4,-2,0,4,18,-1,-1,1
18:51:46.692347,-3,-5,-4,-9,12,3,0,0
18:51:46.692347,-5,-4,0,7,-1,-2,-3,-6
18:51:46.714329,-5,-4,1,-12,-10,-3,-3,-6
18:51:46.715330,-8,-6,-7,2,4,-1,-4,-3
18:51:46.729322,-4,-2,2,-6,-1,-1,0,1
18:51:46.730323,-1,4,0,11,5,-1,3,2
18:51:46.752308,0,0,-5,-30,-48,0,1,1
18:51:46.753307,-3,-11,0,15,-33,3,2,0
18:51:46.774293,2,-1,5,8,2,10,2,4
18:51:46.775293,3,2,-3,10,9,8,3,3
18:51:46.789285,-5,-2,1,-9,-12,-4,-4,-2
18:51:46.790285,-1,-3,-20,-3,4,-1,2,2
18:51:46.812272,-3,-2,-7,-20,-6,-5,-6,-3
18:51:46.813268,1,2,-7,-45,-2,6,2,0
18:51:46.835255,-4,-4,0,58,49,3,0,-5
18:51:46.835255,0,-4,-14,-15,21,-20,1,-1
18:51:46.857244,-4,-9,-20,32,23,11,-1,-2
18:51:46.858240,1,2,-20,-24,-125,-33,-3,-4
18:51:46.872235,-7,-12,-8,-58,-3,-71,-7,-3
18:51:46.873232,2,13,68,15,-107,60,4,0
18:51:46.894218,0,-20,-44,-62,86,-4,-1,3
18:51:46.895217,6,-6,-63,-128,-42,-50,0,6
18:51:46.917204,-15,14,-9,5,-128,85,-9,-15
18:51:46.918203,-28,-96,-84,-128,-128,-128,-24,-20
18:51:46.932194,32,81,81,-77,37,82,18,17
18:51:46.933194,-9,-45,-125,80,127,63,-20,5
18:51:46.955180,4,46,83,-64,-128,-27,20,-1
18:51:46.955180,-13,-18,25,-128,-48,104,-8,-21
18:51:46.977166,-4,-23,3,-128,63,-25,-13,-7
18:51:46.978168,22,57,62,-20,89,127,20,24
18:51:46.992161,-3,-38,-51,69,11,-56,-9,-4
18:51:46.993158,-3,36,67,-128,-86,-23,7,-2
18:51:47.015146,-19,2,9,-68,42,-71,-11,-27
18:51:47.015146,-36,-128,-128,-128,-128,43,-16,-3
18:51:47.037129,75,127,127,127,127,127,60,53
18:51:47.038132,16,67,103,127,127,76,22,0
18:51:47.052123,-5,-52,-38,127,127,45,-9,0
18:51:47.053119,3,14,6,19,-128,74,-11,-5
18:51:47.075109,-31,-31,-40,-128,-128,-128,-30,-19
18:51:47.076105,40,17,2,127,127,127,31,27
18:51:47.097097,30,-81,-33,127,127,127,30,23
18:51:47.098092,31,94,94,-11,-128,-88,5,13
18:51:47.112086,-7,-19,7,127,98,100,24,0
18:51:47.113082,54,125,125,127,127,-116,1,8
18:51:47.143063,2,49,80,-93,127,-79,-12,4
18:51:47.143063,-60,-128,-128,45,-128,-128,-38,-19
18:51:47.157054,65,115,79,127,-128,-128,11,22
18:51:47.165051,-3,86,36,-128,-128,-128,-13,6
18:51:47.172049,1,-1,12,127,-128,127,-18,-14
18:51:47.173048,-68,-119,-83,-128,-128,-128,-19,-34
18:51:47.195031,-10,-2,26,-128,-128,-128,-15,0
18:51:47.195031,-23,-23,35,127,127,-4,-10,-15
18:51:47.217021,29,34,-9,104,127,-101,14,18
18:51:47.218020,-5,-26,23,24,39,6,-4,-6
18:51:47.240004,26,107,91,-128,-128,-128,-10,6
18:51:47.240004,-14,-12,-17,-128,-83,-95,14,2
18:51:47.254994,3,-78,-128,-128,-128,-128,-17,11
18:51:47.254994,-63,-46,-9,-43,-128,82,3,-37
18:51:47.276984,21,31,9,12,127,127,49,22
18:51:47.277982,48,127,127,127,127,127,-9,8
18:51:47.292972,6,90,82,-128,-128,-128,-36,5
18:51:47.292972,-66,-128,-119,-80,-128,-126,-21,-25
18:51:47.314957,7,33,62,127,36,-128,0,3
18:51:47.314957,7,76,72,-128,-128,-128,4,-2
18:51:47.336946,-25,-28,21,37,127,127,0,-10
18:51:47.337943,30,27,89,127,127,127,50,21
18:51:47.351937,5,-49,-69,-128,-128,-128,0,8
18:51:47.352934,-8,39,60,-54,127,127,28,-17
18:51:47.374921,-40,-77,-107,-16,-128,-75,-30,-15
18:51:47.374921,16,49,55,127,127,127,14,5
18:51:47.397907,33,71,32,-128,-128,-128,3,24
18:51:47.397907,36,64,67,104,35,101,23,19
18:51:47.411898,24,59,38,-42,-128,-114,10,15
18:51:47.412899,4,6,-1,-73,98,127,16,6
18:51:47.434886,10,11,4,21,127,127,9,9
18:51:47.435885,14,20,-11,-20,-128,-128,-9,5
18:51:47.456872,-41,-95,-73,85,104,127,6,-17
18:51:47.457869,8,19,23,-54,-73,-18,-6,7
18:51:47.479858,7,21,-18,-103,-128,-128,-10,-3
18:51:47.479858,19,45,24,24,-128,-22,8,8
18:51:47.494847,-13,-19,-22,-82,-93,45,-12,-8
18:51:47.495845,0,-11,-28,-128,-50,85,7,1
18:51:47.516831,-13,-42,-93,-108,-40,24,3,-7
18:51:47.517832,8,-8,-9,16,127,23,13,13
18:51:47.531823,20,54,88,127,127,127,12,9
18:51:47.532825,-21,-60,-69,-67,127,69,-9,-8
18:51:47.554811,9,18,13,39,22,36,9,6
18:51:47.555811,-1,-3,5,38,108,-34,-4,-1
18:51:47.584793,-54,-88,-66,-59,80,104,-20,-33
18:51:47.585791,-6,-23,-15,104,127,-128,-11,-3
18:51:47.591787,1,7,9,-47,-112,-128,-17,0
18:51:47.592787,-4,-10,-15,122,-1,-52,-4,-5
18:51:47.614771,1,19,17,127,49,-68,9,-4
18:51:47.615773,-28,-52,-46,-53,-128,25,-2,-9
18:51:47.637760,28,42,31,64,127,71,14,15
18:51:47.637760,4,35,20,-63,-128,-128,-10,0
18:51:47.652748,3,28,28,-54,-128,-50,-3,5
18:51:47.652748,-21,-24,-6,110,127,127,2,-14
18:51:47.674737,1,-24,-37,44,127,125,8,4
18:51:47.675736,13,36,19,-96,-100,-128,-7,8
18:51:47.697722,-14,-35,-30,-30,-128,125,5,-5
18:51:47.697722,9,14,22,88,117,77,9,3
18:51:47.711714,-24,-43,-23,-94,-128,24,-18,-9
18:51:47.712710,1,11,8,-106,-128,-128,-23,-5
18:51:47.734700,-1,11,13,-128,9,-20,-11,-5
18:51:47.735698,-47,-103,-72,34,127,57,-4,-27
18:51:47.757683,3,14,12,71,127,-82,1,0
18:51:47.757683,10,23,28,-2,127,6,4,2
18:51:47.772674,14,33,21,-95,-128,96,3,6
18:51:47.772674,6,14,16,48,110,21,-1,5
18:51:47.795662,-30,-62,-33,127,127,127,12,-16
18:51:47.795662,1,4,-6,-94,-128,-128,-8,0
18:51:47.817648,2,1,15,87,-128,16,5,-3
18:51:47.817648,-4,-5,-23,-47,127,109,3,-3
18:51:47.832638,3,4,-5,-1,127,127,15,4
18:51:47.832638,-11,-14,-9,-34,-128,-128,-14,-3
18:51:47.854625,1,0,2,2,127,-8,2,-3
18:51:47.855622,0,-16,-23,-15,-32,-17,1,3
18:51:47.884604,-2,4,8,-37,-128,-119,-5,-6
18:51:47.885606,-9,-17,-47,-50,-98,-128,-7,-5
18:51:47.907589,-11,-22,-10,95,54,53,-2,-3
18:51:47.907589,3,5,0,-66,-56,-30,2,4
18:51:47.914586,-3,6,4,-101,1,85,-1,-3
18:51:47.915588,0,1,-4,-69,90,20,4,2
18:51:47.937572,5,-2,-7,-41,127,-3,-2,1
18:51:47.937572,-16,-20,-15,23,45,127,-4,-10
18:51:47.952562,0,4,2,-15,-70,-51,-5,3
18:51:47.959560,6,11,36,127,127,109,12,2
18:51:47.974551,2,2,-2,-8,8,-75,-5,3
18:51:47.975549,3,4,2,-15,-24,-2,3,3
18:51:47.997534,5,5,-4,-33,-74,-30,-5,2
18:51:47.997534,-5,-5,0,18,-26,-12,-5,-5
18:51:48.019523,-2,1,-2,-14,-44,-24,-5,-1
18:51:48.020522,0,-4,1,-1,11,-5,2,-4
18:51:48.034514,10,-2,1,0,25,11,28,-4
18:51:48.035511,-74,18,-2,-4,8,-11,-10,1
18:51:48.057496,17,127,32,16,36,29,-63,31
18:51:48.057496,-24,-48,1,0,21,33,127,45
18:51:48.079486,-128,45,-25,-1,-18,18,-128,-128
18:51:48.080483,127,30,53,52,23,-60,-128,66
18:51:48.094477,-128,-82,-17,-26,-14,72,-128,11
18:51:48.095473,-5,127,84,61,75,82,127,127
18:51:48.117460,-128,74,-44,-47,-53,-5,-128,39
18:51:48.117460,-90,-5,34,41,37,13,127,-86
18:51:48.139449,4,-3,-3,-8,14,13,22,18
18:51:48.140445,25,30,14,-116,-128,-33,-49,1
18:51:48.154436,45,-4,-1,93,127,109,-16,13
18:51:48.155436,86,-60,-8,-15,-128,-56,-24,-7
18:51:48.177422,-7,26,20,27,0,-39,-4,-5
18:51:48.177422,-118,-62,-27,-117,48,34,2,-28
18:51:48.199410,127,-5,-22,21,1,-23,-4,13
18:51:48.200410,-66,48,19,25,-70,1,-7,-5
18:51:48.214400,127,-1,-23,25,104,12,3,-7
18:51:48.215402,83,-5,-25,-128,-114,-18,-101,80
18:51:48.237388,-41,33,-14,-128,6,63,97,1
18:51:48.237388,75,-72,-4,-91,127,127,-96,10
18:51:48.259374,-97,-29,-11,-32,93,-59,61,-91
18:51:48.260371,-109,-59,-11,8,-52,-23,-109,-128
18:51:48.274365,81,26,3,-13,-24,-39,99,127
18:51:48.275362,80,33,14,-43,-128,38,-7,127
18:51:48.297348,-72,-23,13,44,127,-3,60,-78
18:51:48.298349,-10,3,4,-5,-49,-11,10,-16
18:51:48.319336,-22,-13,2,7,-44,22,-27,5
18:51:48.320333,-46,-26,-38,-77,-128,-68,-32,19
18:51:48.342320,-92,-12,-5,-19,-128,-48,-14,-42
18:51:48.343321,-27,-39,8,32,127,41,32,27
18:51:48.357316,-6,-3,-3,15,74,-9,-8,17
18:51:48.357316,-48,-14,-1,8,20,7,104,-28
18:51:48.379300,-45,-21,-3,-23,-44,53,127,35
18:51:48.380297,-1,1,-6,-99,-84,-6,11,-8
18:51:48.394287,4,-8,2,6,-128,-17,7,14
18:51:48.395287,-7,-13,-8,2,102,26,-23,-12
18:51:48.417277,0,-5,-8,4,-29,-17,5,6
18:51:48.418273,18,18,11,-7,127,42,-5,30
18:51:48.439260,85,23,-5,44,127,-12,50,42
18:51:48.440260,-5,2,-22,-94,-102,25,6,30
18:51:48.455250,-18,-8,7,36,26,-1,-4,-17
18:51:48.455250,-8,-7,-5,-7,22,-13,-2,-4
18:51:48.477239,67,26,8,-81,-116,10,24,42
18:51:48.478237,-28,-14,-27,-16,-107,11,37,-3
18:51:48.500222,49,10,-6,1,50,7,-30,39
18:51:48.500222,10,12,2,76,127,71,30,12
18:51:48.515216,0,-2,-5,26,127,-33,4,4
18:51:48.522208,-11,-9,7,77,106,16,-7,-5
18:51:48.537202,13,9,4,-27,-56,10,9,30
18:51:48.538198,11,9,6,-7,-39,10,5,7
18:51:48.560185,9,-2,-3,78,127,6,14,29
18:51:48.560185,-5,6,6,14,45,9,4,7
18:51:48.575176,35,11,-2,-9,-10,3,-28,25
18:51:48.582174,-10,-7,-2,0,-4,5,9,-8
18:51:48.597165,-1,-3,-7,11,127,31,7,5
18:51:48.598162,1,6,5,-3,92,8,-4,0
18:51:48.619148,-1,1,-8,-35,-6,0,0,-1
18:51:48.620150,-1,-4,-4,3,-11,-1,-4,-3
18:51:48.635143,9,3,-3,-11,27,5,5,8
18:51:48.642137,1,-5,1,21,38,-3,-5,-5
18:51:48.657128,-5,-1,-3,-7,-11,-1,2,-1
18:51:48.658124,16,2,3,10,52,4,0,-1
18:51:48.680111,-3,0,-3,-6,-31,-17,1,1
18:51:48.680111,-16,-9,-6,11,19,6,-1,-5
18:51:48.695104,-4,-4,-4,-1,-5,-5,-1,-4
18:51:48.710092,-10,-4,-1,-10,8,-2,0,-4
18:51:48.717091,10,7,2,18,127,39,5,4
18:51:48.718087,-4,3,7,-2,27,-5,-4,-2
18:51:48.740076,1,-10,-1,-7,7,3,-2,-1
18:51:48.740076,23,5,1,-5,-13,-4,-12,1
18:51:48.755064,-7,-4,-3,2,-4,1,7,1
18:51:48.762061,-5,0,-3,19,-4,-14,-13,-12
18:51:48.777053,-2,-1,0,-14,-48,-6,7,10
18:51:48.778049,-2,-3,-1,12,33,4,-3,-6
18:51:48.800037,-1,-2,-4,-3,-5,3,0,-1
18:51:48.800037,-5,-1,-5,-48,-52,-8,3,2
18:51:48.815028,4,4,-1,14,24,2,-1,2
18:51:48.822024,-2,-4,-4,-1,2,-4,-4,-8
18:51:48.837016,3,4,-3,-5,-3,-2,0,1
18:51:48.838015,4,1,-1,-18,-6,-3,0,2
18:51:48.859999,-6,2,2,-1,-4,-9,-12,-10
18:51:48.859999,2,-2,-1,0,-18,-1,-5,4
18:51:48.874990,-7,-6,-5,-21,-21,3,-11,-2
18:51:48.881986,2,-1,-2,2,2,0,10,6
18:51:48.896978,-4,-4,1,-2,-5,-4,-2,0
18:51:48.897975,-1,-2,0,-2,-5,2,-3,0
18:51:48.919962,-9,-6,-4,0,-3,0,0,-2
18:51:48.919962,8,4,-3,-1,1,4,3,2
18:51:48.934956,-5,-2,-3,-4,-3,-1,3,-3
18:51:48.941949,-1,-1,-4,-2,-5,-3,-3,1
18:51:48.956942,1,2,1,-3,-1,-4,-7,11
18:51:48.957938,0,3,4,5,7,10,-9,4
18:51:48.979925,-2,0,0,-2,-3,-3,7,10
18:51:48.980924,-3,-5,-6,-3,2,-3,1,-2
18:51:48.994918,-1,3,-2,-1,-5,-5,-4,-4
18:51:49.001911,-7,-2,-3,-2,-3,-5,-7,-5
18:51:49.016904,5,7,0,2,4,7,-3,-3
18:51:49.017901,-1,0,-1,-2,-5,-4,-3,-4
18:51:49.039887,-17,-10,-3,-3,-6,0,1,0
18:51:49.039887,2,-1,3,1,2,6,0,-2
18:51:49.054881,-13,-11,-4,-5,-5,-2,-5,2
18:51:49.061875,-8,-1,1,-3,-2,-7,1,3
18:51:49.076867,10,2,-1,-1,3,2,-2,4
18:51:49.077865,-14,-9,-1,-5,-3,-3,-4,4
18:51:49.099853,-2,-2,0,1,-1,-7,-8,-4
18:51:49.100850,-5,0,1,1,0,2,-3,-1
18:51:49.121838,-2,-4,-4,-1,-5,-3,-2,-4
18:51:49.122836,0,3,3,1,1,4,-1,2
18:51:49.136830,-2,-4,-4,-2,2,-5,-3,-1
18:51:49.137828,6,1,1,-1,-3,-7,-4,2
18:51:49.159816,0,3,-1,0,0,-1,0,1
18:51:49.159816,3,2,2,0,2,2,-10,-8
18:51:49.181799,0,3,-1,0,1,5,8,1
18:51:49.182799,-5,-3,-2,1,3,-1,0,1
18:51:49.196791,-3,-4,-1,-3,-2,-2,1,-2
18:51:49.197790,1,4,1,0,4,3,-15,0
18:51:49.219779,-4,2,-4,-1,1,3,1,-2
18:51:49.220775,0,-3,-1,-3,-3,1,-2,-3
18:51:49.241763,0,-2,-4,-3,-4,-1,-1,1
18:51:49.242765,-1,0,-1,1,1,-2,-7,-1
18:51:49.264748,-1,1,-1,-2,-4,-2,1,0
18:51:49.265748,-3,-4,0,0,0,1,-2,-1
18:51:49.279741,-2,-1,-2,0,-2,-3,-4,-2
18:51:49.280738,3,2,5,2,2,-4,4,10
18:51:49.302727,-5,-1,0,-2,0,1,3,-3
18:51:49.302727,1,-1,-3,-2,-3,1,1,-3
18:51:49.316716,-1,0,-1,1,-2,-3,-2,0
18:51:49.317716,-3,0,-1,-1,-2,0,-15,4
18:51:49.339701,-4,-7,-1,-3,1,3,8,17
18:51:49.340700,-1,-6,-3,-2,-4,-3,-4,-4
18:51:49.362690,-2,3,-4,-1,-1,-2,-5,-6
18:51:49.369686,-2,-1,-1,-3,-6,0,-7,-10
18:51:49.376679,1,1,-1,-2,-3,2,2,8
18:51:49.377681,1,-3,-1,-2,-3,-1,-1,-2
18:51:49.399664,4,1,-3,1,0,-2,-13,-2
18:51:49.400663,-4,-7,-2,-1,-1,-2,-28,-5
18:51:49.421652,0,1,4,0,-6,1,4,-1
18:51:49.422651,1,-1,-2,-4,-3,-3,-5,-5
18:51:49.444636,-1,-2,-1,-2,-1,1,2,-1
18:51:49.445636,-5,1,-3,0,-4,-1,-1,-2
18:51:49.459627,9,1,-1,0,-1,-2,-4,6
18:51:49.460627,-2,-2,-1,-4,-2,-2,1,-3
18:51:49.482613,-6,-6,-1,-1,-1,-1,-1,-1
18:51:49.482613,1,2,1,0,1,-2,1,-2
18:51:49.497607,3,-2,0,-1,-4,-2,-1,1
18:51:49.504602,-6,-6,-1,0,2,-1,4,-1
18:51:49.519593,1,2,-3,0,3,-4,-2,-3
18:51:49.520589,0,1,4,4,1,5,7,8
18:51:49.542576,-3,-1,0,-1,4,2,-1,-2
18:51:49.542576,5,1,-2,-3,-2,-1,1,1
18:51:49.557569,-3,-3,-1,-3,1,0,0,1
18:51:49.564564,-1,0,1,-2,4,3,1,-2
18:51:49.587548,-4,0,2,1,-2,-7,-9,-3
18:51:49.587548,-8,-10,-5,-4,-2,0,-12,-6
18:51:49.602539,-4,-1,-2,-5,-4,-2,9,-6
18:51:49.602539,1,0,-2,0,1,-1,-1,-5
18:51:49.617532,-4,-3,-3,-3,-6,1,1,-9
18:51:49.624524,-1,-3,-4,-2,1,-1,-3,-3
18:51:49.639519,-1,-2,-2,-2,0,0,-3,-4
18:51:49.640515,-4,-6,-2,-4,0,-3,0,6
18:51:49.662503,-9,-5,0,0,-4,-6,-8,-9
18:51:49.662503,3,-1,0,3,-1,3,4,6
18:51:49.677492,8,5,-2,0,1,-1,3,1
18:51:49.685487,-2,-2,-1,-2,-2,-2,-10,-2
18:51:49.699478,-2,-3,-3,-5,-4,-3,1,-3
18:51:49.700481,-2,-2,-4,-2,-3,0,-3,-6
18:51:49.722464,-4,-3,0,-1,0,3,1,-4
18:51:49.722464,-8,-1,0,-1,-3,-2,-4,-8
18:51:49.737458,-1,-1,-4,-3,-1,2,-4,0
18:51:49.744450,4,4,-1,0,-1,1,-2,3
18:51:49.759444,2,2,-5,-1,0,-1,2,4
18:51:49.760440,-3,1,-4,-1,-2,-2,1,-1
18:51:49.782430,-2,0,-2,-2,0,0,-1,-2
18:51:49.782430,-1,-1,1,0,-1,-1,0,-2
18:51:49.797421,5,0,2,3,1,0,-8,0
18:51:49.812411,5,5,0,-3,-1,-1,-1,5
18:51:49.819407,1,-1,-2,-3,-1,-2,-1,1
18:51:49.820403,0,-2,0,-1,-4,-2,20,8
18:51:49.842392,-1,0,0,-3,1,1,3,1
18:51:49.843389,17,0,-1,-1,-1,-3,6,6
18:51:49.857384,-5,-4,-2,2,-3,-2,-2,-4
18:51:49.864378,-3,1,5,1,-5,-4,1,1
18:51:49.879367,2,1,-1,-3,-2,-5,-3,2
18:51:49.880369,7,3,0,-3,4,-3,-2,2
18:51:49.902356,5,0,-1,2,-2,1,1,-1
18:51:49.903355,-1,0,0,-1,-2,-4,-13,-1
18:51:49.917346,-6,-4,-2,-3,-1,0,-4,-13
18:51:49.924338,2,0,0,2,-2,-1,11,0
18:51:49.939331,0,-4,-4,-1,-1,-2,2,-3
18:51:49.940330,-2,-3,-1,-2,-1,-2,-1,-1
18:51:49.962319,-2,-3,-3,-2,1,-2,1,-2
18:51:49.962319,-2,2,1,-2,-1,-4,0,-2
18:51:49.977309,4,-3,0,1,1,-1,1,0
18:51:49.984302,1,-1,-4,-3,-1,-5,-5,-5
18:51:49.999294,9,7,1,-2,2,6,4,15
18:51:50.000292,0,-5,-2,-3,-4,-8,12,-1
18:51:50.022281,-1,1,0,-1,-3,1,3,1
18:51:50.023278,-3,-1,-1,-1,-4,-3,4,0
18:51:50.037272,3,-1,1,2,3,5,4,0
18:51:50.044267,-3,-2,-3,0,0,0,-1,-1
18:51:50.059255,-1,1,-3,-4,1,-2,-5,-3
18:51:50.060256,-1,-5,-2,-5,-2,-3,-1,1
18:51:50.082244,-1,0,-1,2,-2,0,0,-3
18:51:50.083240,7,1,1,-3,2,4,6,4
18:51:50.104228,-6,-4,0,-1,-2,0,4,-6
18:51:50.105227,3,-4,-2,-2,-3,0,4,7
18:51:50.120219,-6,-2,0,-3,-1,-2,0,-1
18:51:50.120219,8,6,-1,1,3,-3,-9,1
18:51:50.142207,-2,-3,-3,0,-2,-2,0,-2
18:51:50.143206,-2,-3,0,0,0,1,3,-3
18:51:50.165190,-6,-3,-4,-1,0,0,0,-1
18:51:50.165190,5,0,1,0,0,0,-1,1
18:51:50.179181,-3,-2,0,2,-2,-1,-4,1
18:51:50.180182,5,1,3,1,4,5,5,5
18:51:50.202170,-4,1,2,-1,1,-5,4,-13
18:51:50.203166,-8,-4,-3,0,1,2,-3,-4
18:51:50.225152,4,-4,-2,-1,-1,-1,2,1
18:51:50.225152,1,-1,-3,0,-3,0,-2,-5
18:51:50.240148,11,4,3,0,1,-2,2,3
18:51:50.240148,4,2,-1,-4,0,2,0,1
18:51:50.262132,1,-4,-1,-1,-4,-1,-2,2
18:51:50.263129,7,5,4,0,3,13,23,11
18:51:50.285115,-1,-1,-1,-1,3,0,0,2
18:51:50.285115,0,-4,-1,1,-3,-5,-5,0
18:51:50.307104,4,2,4,0,4,3,4,3
18:51:50.308102,1,1,-3,4,9,-4,2,0
18:51:50.322095,-3,0,-5,0,-5,2,-3,-5
18:51:50.323092,4,3,1,2,0,3,-3,-1
18:51:50.345078,12,5,2,-2,3,0,1,2
18:51:50.345078,-1,-1,2,0,3,3,8,4
18:51:50.360069,-1,-1,0,-1,2,-1,-4,-4
18:51:50.360069,-3,0,-2,-2,0,2,7,4
18:51:50.382056,-1,-1,-2,0,-4,-3,15,3
18:51:50.383057,0,0,-4,-2,-4,-2,-11,0
18:51:50.405042,5,-1,-3,-3,0,0,10,12
18:51:50.405042,-3,-1,-3,1,-1,0,-4,-4
18:51:50.420034,0,1,-3,1,-3,-2,0,-3
18:51:50.427029,0,0,-4,0,0,2,0,3
18:51:50.443017,-2,-3,0,-3,1,-2,-5,-3
18:51:50.443017,2,1,-1,-1,3,5,0,-2
18:51:50.465004,-7,-3,-1,-1,-2,0,-3,-2
18:51:50.465004,-2,-1,3,-1,-3,3,1,1
18:51:50.479997,-3,1,-1,0,1,1,2,0
18:51:50.486989,-2,-1,-1,-2,-3,-4,-4,-7
18:51:50.502980,1,-4,0,-1,1,3,4,-1
18:51:50.502980,-4,1,-1,0,-3,-3,-1,-3
18:51:50.524966,-4,-3,0,-2,1,-1,-3,-2
18:51:50.524966,4,-1,-5,-4,-3,2,-1,0
18:51:50.547953,4,3,-4,-2,-3,-2,-2,-2
18:51:50.547953,-7,-4,-4,0,0,-1,-5,-8
18:51:50.561945,-3,-2,1,2,1,5,2,5
18:51:50.562943,8,3,0,3,-3,1,3,2
18:51:50.584929,-1,-2,-2,-2,1,-2,-13,-5
18:51:50.584929,-2,-3,-2,1,-2,-1,1,-3
18:51:50.599920,-7,-6,-3,-2,-1,2,4,-1
18:51:50.614910,-1,-2,-3,-3,-2,3,-3,-6
18:51:50.621907,17,5,-1,-1,-4,-4,-3,0
18:51:50.622906,-3,-2,-4,-3,-3,0,3,-3
18:51:50.644892,-1,-2,1,-3,1,6,1,-2
18:51:50.644892,-2,-3,-1,0,1,-8,-4,-4
18:51:50.659886,0,-3,-2,0,1,-1,5,5
18:51:50.667879,2,0,1,-1,2,2,-3,9
18:51:50.681869,0,-4,-5,-2,-3,-1,-2,-3
18:51:50.682869,-1,-2,-4,-3,-2,-8,3,-6
18:51:50.704857,1,1,1,0,0,2,0,1
18:51:50.705854,2,-8,-1,-2,-2,-1,1,-1
18:51:50.719849,1,1,3,2,4,4,3,5
18:51:50.726844,0,1,1,-1,-2,1,1,5
18:51:50.741832,2,1,-3,-4,-3,-4,-6,-6
18:51:50.742832,-3,-1,-2,0,0,3,0,-1
18:51:50.764820,1,2,-1,0,-5,-3,-3,0
18:51:50.765817,3,-1,0,3,4,1,1,3
18:51:50.779811,-6,-3,-2,-2,0,1,-1,-6
18:51:50.787805,7,-3,-3,-3,0,-1,2,3
18:51:50.802795,-7,-2,-4,-1,0,-2,0,-3
18:51:50.802795,11,-4,0,-4,0,1,5,13
18:51:50.824783,0,-2,-1,-2,-4,-2,-1,-3
18:51:50.825781,0,-1,-1,-2,0,-1,-2,-1
18:51:50.839774,-4,-4,-1,-1,-4,-3,-3,-3
18:51:50.846769,1,-1,-5,-1,0,-3,-18,-1
18:51:50.862759,2,0,0,1,1,1,4,-3
18:51:50.862759,0,3,-1,-4,1,1,6,0
18:51:50.884746,6,3,-2,1,-3,1,6,2
18:51:50.885743,-1,1,-1,0,0,0,-4,-5
18:51:50.899737,0,0,0,-3,-3,-4,-8,-2
18:51:50.914728,-1,3,1,-1,-2,3,-3,-4
18:51:50.929718,-2,0,-2,-4,-2,0,1,-1
18:51:50.929718,1,1,0,1,1,1,-1,2
18:51:50.944709,1,1,-1,0,1,-4,-12,3
18:51:50.945708,-1,-3,-1,-2,-3,-2,0,-3
18:51:50.959699,-6,-3,-2,-2,-1,0,15,1
18:51:50.967695,11,4,2,-1,-2,0,-2,-3
18:51:50.982684,1,2,-3,-3,1,1,3,-8
18:51:50.982684,-3,-3,0,-3,-2,0,0,1
18:51:51.004672,0,0,0,-1,1,-1,-2,-1
18:51:51.005668,1,0,1,3,5,1,-3,3
18:51:51.034653,-9,-3,-2,0,-4,-1,2,-1
18:51:51.035650,-3,1,-1,1,1,-1,-1,-2
18:51:51.041649,11,1,2,-2,-1,2,16,2
18:51:51.042648,-6,-2,1,-1,0,-3,-1,-8
18:51:51.064631,0,3,-1,0,2,1,1,0
18:51:51.065633,-2,-3,-2,-3,-1,-4,-15,-4
18:51:51.087619,16,3,0,-2,0,-3,-1,5
18:51:51.087619,2,2,0,0,3,1,-2,-2
18:51:51.102613,-3,-1,-4,-1,-1,-2,3,-2
18:51:51.102613,-3,-7,-3,-3,-8,-8,-9,-10
18:51:51.124598,0,-1,0,-1,-3,-1,-5,-4
18:51:51.125594,-3,0,-3,-4,-5,-6,8,1
18:51:51.147580,-2,0,0,1,-2,3,-1,-2
18:51:51.148580,-3,-2,-2,-1,-3,0,1,1
18:51:51.162570,15,10,6,4,3,-2,3,8
18:51:51.162570,7,2,-4,-3,-5,1,-9,3
18:51:51.184557,-1,-1,0,0,1,2,2,-1
18:51:51.185559,-1,-1,2,-4,-1,5,1,1
18:51:51.207545,3,1,0,1,-2,-1,-2,3
18:51:51.207545,-2,-1,2,-1,0,2,0,0
18:51:51.222534,-3,-3,-1,-3,-1,-3,1,-3
18:51:51.222534,-1,-1,-1,-1,-2,-2,-8,-3
18:51:51.244523,-2,-2,-1,-1,-4,-3,4,7
18:51:51.245520,-5,-6,-7,-1,-8,-3,-1,0
18:51:51.267506,-1,4,4,6,3,1,-2,-2
18:51:51.268508,-1,0,0,1,-2,3,-1,3
18:51:51.282497,-1,1,-3,1,3,4,-11,0
18:51:51.282497,-2,-4,-1,-2,0,-2,0,0
18:51:51.304486,1,-2,3,0,-1,3,3,1
18:51:51.305485,-8,-4,2,1,-4,-2,-4,-5
18:51:51.327469,-4,-5,-6,-3,-5,-6,-6,-9
18:51:51.327469,0,-3,0,1,-2,-3,1,1
18:51:51.342460,-4,-7,-3,-4,-3,0,11,-1
18:51:51.349455,2,-2,0,-1,1,1,-6,-4
18:51:51.364448,-1,-4,-1,-3,-2,-3,1,2
18:51:51.365445,-2,-3,-3,-2,0,0,2,3
18:51:51.387434,-4,-1,2,0,1,2,-1,-3
18:51:51.387434,-6,-3,-1,0,-2,1,14,-3
18:51:51.402425,-3,-1,1,0,4,3,1,0
18:51:51.409418,-6,-2,-2,-3,-5,-4,-3,-6
18:51:51.424411,-3,-3,-1,0,-1,0,3,5
18:51:51.425408,-5,-2,-4,0,1,-1,1,-2
18:51:51.447394,0,-1,-3,-1,-1,0,4,1
18:51:51.448396,3,-3,-3,-2,-2,-3,2,2
18:51:51.462388,-1,-3,-1,-1,0,-2,1,0
18:51:51.469381,-7,-3,-1,-3,-2,-1,2,2
18:51:51.484374,3,-5,-2,0,2,0,2,4
18:51:51.485371,-2,-1,1,2,3,3,1,1
18:51:51.507360,-8,1,-1,0,1,2,-1,1
18:51:51.507360,3,1,1,3,-1,-2,1,1
18:51:51.522351,-5,-5,-3,-2,1,-3,4,-1
18:51:51.529343,3,2,-1,0,-3,-1,-3,-3
18:51:51.544337,-3,-4,-1,-1,-2,-3,2,2
18:51:51.545336,-4,-3,-3,-2,-1,0,1,1
18:51:51.567323,-1,-3,-3,-2,-3,-2,-22,2
18:51:51.568319,-5,1,-1,0,-4,-3,1,-3
18:51:51.582314,0,0,-1,-1,-3,1,12,3
18:51:51.590306,1,0,-1,-1,-1,-4,-3,-1
18:51:51.604296,-1,0,-2,-2,-5,-5,-3,1
18:51:51.605299,1,0,0,0,-2,-2,0,1
18:51:51.627286,-1,-5,-5,0,0,-4,-1,-4
18:51:51.628285,2,5,2,1,4,3,-6,5
18:51:51.650268,0,0,-2,0,-6,-6,18,1
18:51:51.650268,-2,0,1,-2,-1,2,0,-3
18:51:51.664260,0,-2,-4,-4,-2,-3,-5,-9
18:51:51.665260,-8,-4,-2,-1,-4,-6,-6,-6
18:51:51.687249,-5,-1,-2,0,1,0,1,-2
18:51:51.688248,-1,5,0,0,3,-5,-5,-5
18:51:51.702236,-6,-1,0,-3,-3,2,1,-2
18:51:51.710233,-8,-4,1,-1,-3,-2,0,-2
18:51:51.725222,0,2,3,3,-2,-1,-1,-2
18:51:51.725222,-3,-2,0,0,-1,-1,-2,-2
18:51:51.747210,1,0,-1,-1,0,3,5,0
18:51:51.748208,8,6,0,-1,0,6,-3,6
18:51:51.762199,-1,-1,0,-3,-1,0,3,-3
18:51:51.770197,-5,-2,-3,-1,-3,0,1,1
18:51:51.785187,-6,-2,-3,1,-1,0,-2,3
18:51:51.785187,0,0,-3,-2,-2,-1,0,-1
18:51:51.807174,-1,0,-1,-1,-1,-1,-2,-3
18:51:51.808171,0,-1,1,-2,-1,1,1,-1
18:51:51.822165,9,0,-1,-1,1,1,4,3
18:51:51.830157,-1,-2,-1,0,-1,-3,1,-1
18:51:51.845148,-4,0,0,2,-2,-3,-5,-6
18:51:51.845148,1,1,2,-2,0,1,-1,0
18:51:51.867136,-3,-1,0,-1,-4,-5,1,-4
18:51:51.868138,2,1,2,0,-2,-1,-1,1
18:51:51.890120,2,-1,0,-2,-2,-3,-27,-4
18:51:51.890120,-2,-3,2,-1,1,-4,3,-2
18:51:51.904112,-1,-2,0,0,-2,-1,4,3
18:51:51.905111,-4,-2,-2,1,0,1,3,-1
18:51:51.927100,-4,-2,-3,0,1,0,0,1
18:51:51.928097,1,0,-1,3,0,-1,3,1
18:51:51.950083,0,2,-2,-4,0,0,1,-1
18:51:51.950083,2,2,0,-1,2,2,0,-2
18:51:51.965074,14,6,4,-2,-5,-2,0,2
18:51:51.965074,-2,0,2,2,1,2,6,7
18:51:51.987063,1,-1,-1,-1,-3,-1,13,0
18:51:51.988061,-1,1,2,-1,0,-2,-9,-4
18:51:52.017041,0,-2,-1,0,0,-1,9,7
18:51:52.018040,-1,-1,1,-2,-2,-3,-1,0
18:51:52.024041,0,-1,-1,-3,0,-2,-4,-3
18:51:52.025036,-6,-2,-2,-3,-1,0,0,-5
18:51:52.047025,2,0,0,-2,-2,-3,3,2
18:51:52.048022,-1,-4,-3,-2,-3,-3,1,2
18:51:52.070008,1,2,0,-1,0,2,-1,0
18:51:52.070008,1,4,0,-1,-3,0,1,1
18:51:52.084999,0,-3,-3,2,0,-3,0,1
18:51:52.084999,-2,0,-1,-6,0,-2,-15,-4
18:51:52.106988,-4,1,1,4,13,2,1,-2
18:51:52.107987,-3,-4,-2,-10,-8,-4,13,-3
18:51:52.129971,7,-1,0,1,-2,-3,-10,-5
18:51:52.129971,1,1,-2,2,-36,0,0,-8
18:51:52.144961,-2,-6,-1,0,11,0,1,1
18:51:52.144961,-1,-2,-3,-1,-6,3,5,0
18:51:52.166951,-3,-2,-3,1,-5,0,-2,0
18:51:52.167948,0,-1,-1,0,-3,1,-2,0
18:51:52.189936,0,1,-1,1,-3,3,4,1
18:51:52.189936,-1,1,3,0,0,1,2,-4
18:51:52.204924,-3,-5,-4,-1,-1,2,-19,-2
18:51:52.204924,2,3,-1,1,0,1,17,-2
18:51:52.226912,-4,-2,0,-2,0,0,0,-1
18:51:52.227911,-4,-3,1,-1,-1,-3,-1,-5
18:51:52.249900,-1,2,-1,-1,-1,0,2,2
18:51:52.250899,-2,-1,1,-1,-3,0,-2,-3
18:51:52.264887,3,-3,-2,1,-3,-1,0,-3
18:51:52.264887,4,2,2,3,3,4,4,4
18:51:52.294871,1,-4,-2,1,1,-1,-2,-2
18:51:52.294871,2,2,0,2,-2,0,1,2
18:51:52.309862,0,-2,-2,0,1,3,-16,-9
18:51:52.309862,-2,-2,-1,1,1,5,7,-1
18:51:52.324854,9,1,-4,0,-1,1,-10,1
18:51:52.325849,-5,-4,-2,-2,-3,0,-1,-3
18:51:52.346836,-4,1,0,-3,0,0,-2,-4
18:51:52.347839,7,-1,1,-2,-1,-1,1,6
18:51:52.369825,1,-3,-1,-3,0,2,3,1
18:51:52.370821,-2,1,-1,1,4,1,-2,-1
18:51:52.384813,0,-3,1,-3,-2,1,-5,-2
18:51:52.385813,-1,-2,3,1,0,3,6,9
18:51:52.407798,-1,-1,-2,0,-2,-5,-5,-1
18:51:52.407798,-3,-1,-1,1,-1,-2,-22,-1
18:51:52.429784,13,7,2,1,1,3,25,10
18:51:52.429784,0,3,-1,0,4,3,6,5
18:51:52.444779,-3,-4,2,0,-2,-2,2,0
18:51:52.444779,-2,-1,-1,-1,1,-1,-4,0
18:51:52.467764,11,5,2,1,1,2,-1,0
18:51:52.467764,5,0,3,1,-1,2,3,4
18:51:52.489751,3,4,0,2,2,5,1,-2
18:51:52.490751,-3,-5,-3,-2,-1,1,-1,0
18:51:52.504742,3,-1,0,0,0,-1,3,-1
18:51:52.505739,-8,-4,-3,2,1,-3,16,7
18:51:52.527727,-1,0,1,-1,0,-3,2,-2
18:51:52.527727,-1,-3,-2,0,-2,0,10,0
18:51:52.549714,-4,0,-4,-2,0,-2,-5,-2
18:51:52.550714,4,-1,-3,-2,-1,4,3,-1
18:51:52.564701,-2,-1,-1,-3,0,-2,-2,4
18:51:52.565701,-1,-2,-2,-5,0,0,2,3
18:51:52.587690,4,3,6,4,1,-2,3,8
18:51:52.587690,-2,1,-3,0,-1,0,-3,-4
18:51:52.609674,-3,-2,-1,-1,-1,1,-17,-2
18:51:52.610673,-4,-3,-1,-3,-2,-3,-2,-3
18:51:52.632662,0,-5,0,1,0,0,1,0
18:51:52.632662,2,0,-1,-3,-2,-3,-1,0
18:51:52.647650,-2,3,3,1,-3,1,-17,-5
18:51:52.647650,-1,-3,-1,0,-6,-2,3,-2
18:51:52.669639,0,-2,-1,-1,0,0,5,2
18:51:52.670638,2,-1,-3,-4,-3,-2,-1,1
18:51:52.684630,8,1,1,0,-2,2,5,9
18:51:52.692622,-3,0,-1,-3,-6,0,-2,-8
18:51:52.707614,-4,-2,0,-1,-1,-1,-2,-2
18:51:52.708614,-2,-1,0,1,-4,-2,-3,-3
18:51:52.729602,-2,1,4,2,3,-1,-11,7
18:51:52.730599,2,-1,1,-2,-2,-1,3,0
18:51:52.752585,-6,-4,0,-2,-1,-1,1,0
18:51:52.753585,1,0,-2,0,-2,0,-12,-4
18:51:52.767576,-2,-2,-1,-1,1,0,0,1
18:51:52.767576,-3,-1,-2,0,-1,1,0,-5
18:51:52.789565,-2,0,0,-1,-1,-2,-6,-4
18:51:52.790561,-1,-4,-3,-1,0,-7,-7,-6
18:51:52.812550,-4,0,0,-3,-1,2,-4,-3
18:51:52.812550,-5,-5,-1,0,2,4,0,-1
18:51:52.827538,-3,-6,-4,-5,-4,1,4,-1
18:51:52.827538,0,-1,-2,0,-6,-4,-7,-4
18:51:52.849528,-3,-8,-3,-5,-3,2,-5,-3
18:51:52.850528,-1,-1,-1,0,3,2,2,-1
18:51:52.872510,2,-2,-1,-2,-3,0,4,3
18:51:52.872510,1,-1,-1,1,1,1,-14,1
18:51:52.887503,0,-1,-2,2,-2,2,4,-3
18:51:52.887503,0,-6,-2,-4,-2,-3,-1,-2
18:51:52.909491,-3,1,0,-1,-2,3,-1,-6
18:51:52.910486,-7,-5,-3,-1,-3,-6,-6,-5
18:51:52.932473,-3,3,0,0,-2,0,-2,-3
18:51:52.932473,-3,-1,-1,0,0,0,-1,0
18:51:52.947465,-1,-4,-3,-3,-3,-1,3,2
18:51:52.947465,-1,0,-2,1,2,0,-21,-2
18:51:52.969453,-5,-3,-2,-3,-4,-3,-1,-3
18:51:52.970452,7,2,-1,1,-4,-4,-3,-3
18:51:52.992436,-8,-1,-1,0,-1,-2,-10,-3
18:51:52.992436,-1,0,0,-4,-3,0,3,3
18:51:53.007426,-3,-1,1,-1,2,-1,2,1
18:51:53.007426,4,2,-2,-1,2,-1,-5,-4
18:51:53.029415,-2,1,-3,-3,-1,-2,-1,-1
18:51:53.030413,3,1,1,1,-2,0,-2,0
18:51:53.052399,-5,0,0,-1,-3,-3,-3,-5
18:51:53.052399,-2,-2,-1,-1,-2,0,0,0
18:51:53.067389,-1,-1,-3,0,-1,-4,-25,-6
18:51:53.068389,-1,-1,2,0,0,3,0,0
18:51:53.089376,-3,0,-1,0,-1,-2,-4,-7
18:51:53.090378,-4,-2,-3,-2,-5,-6,12,-8
18:51:53.119357,0,-4,0,-1,-2,1,-3,-1
18:51:53.120357,-4,-1,0,0,-2,-1,1,-4
18:51:53.127352,1,0,2,-3,1,-6,-3,0
18:51:53.127352,3,2,-3,-3,0,3,1,1
18:51:53.149338,-1,-3,-2,-1,-1,-2,-2,-4
18:51:53.150338,-2,-2,-3,-3,-6,-2,2,0
18:51:53.172327,-2,-2,-2,-1,-1,-1,-13,-4
18:51:53.173325,-1,-2,-2,-1,-1,0,-2,1
18:51:53.187318,0,-2,-1,-1,3,-1,2,0
18:51:53.187318,1,-1,-4,0,-2,-2,0,4
18:51:53.210301,-7,-2,0,1,0,-1,-5,-11
18:51:53.210301,-1,0,0,-1,-3,-3,0,-4
18:51:53.232290,-1,1,0,0,-2,1,-10,2
18:51:53.232290,-7,-4,-3,-3,-2,-3,4,-5
18:51:53.247281,-3,-2,3,-2,0,2,-1,-1
18:51:53.248277,12,4,-2,1,-1,-4,-1,-2
18:51:53.270264,-3,-5,2,-4,0,0,0,0
18:51:53.270264,-1,0,0,-3,2,-1,-1,-7
18:51:53.292253,-1,-6,-2,-3,-2,4,5,2
18:51:53.292253,2,2,-1,0,2,1,-2,-2
18:51:53.307244,-2,-2,-2,0,-1,-3,-1,-3
18:51:53.308242,-4,-1,-1,0,0,-1,0,-4
18:51:53.330227,-3,-3,-2,-4,2,1,0,-1
18:51:53.330227,-1,0,1,-2,-2,-2,-2,-3
18:51:53.352214,4,0,0,2,1,-1,-13,2
18:51:53.353215,0,-2,-3,-3,0,1,5,8
18:51:53.367207,0,-2,-2,0,0,1,1,2
18:51:53.368203,-2,-1,0,0,-4,-3,-1,0
18:51:53.390190,-4,-1,-2,-2,1,-2,-3,0
18:51:53.390190,-3,-3,0,1,1,1,-14,-2
18:51:53.412179,-3,-2,-1,1,-5,-4,-7,-8
18:51:53.413175,-5,-4,1,0,0,0,3,0
18:51:53.427169,3,1,3,2,-2,-1,-3,-2
18:51:53.428167,10,-1,0,-1,-2,0,-2,4
18:51:53.450152,5,4,1,-3,0,-3,2,6
18:51:53.450152,3,-5,-3,-2,-3,-1,1,4
18:51:53.472138,3,7,-1,1,3,-1,0,-4
18:51:53.473138,-3,-2,1,1,0,0,-7,-10
18:51:53.487132,2,-1,-3,-4,-2,-1,0,1
18:51:53.488129,0,-1,0,1,-2,-2,-16,-3
18:51:53.510118,1,-2,-4,-1,1,-3,8,5
18:51:53.511122,0,0,2,-2,0,-1,1,-1
18:51:53.532104,-3,-1,-4,0,-2,-2,-4,-4
18:51:53.533101,-7,-7,1,0,-2,0,-6,0
18:51:53.547095,-5,-1,1,1,-2,0,0,1
18:51:53.548092,-6,0,1,2,5,-1,0,-2
18:51:53.570079,-2,-1,-1,-2,1,-3,-1,0
18:51:53.570079,-3,0,0,-4,-2,0,-2,-7
18:51:53.592067,-1,-3,-2,-1,1,-3,-8,-1
18:51:53.593065,0,-3,0,-3,1,2,5,4
18:51:53.607055,-3,0,-4,0,-4,-2,-4,-2
18:51:53.608054,-4,-6,-2,-1,0,-4,2,-4
18:51:53.630041,6,2,0,-1,-1,-1,3,3
18:51:53.630041,-4,-4,-3,-2,-3,-2,1,-2
18:51:53.652030,2,4,-2,0,0,-1,-3,1
18:51:53.653029,-3,-2,0,-4,2,2,2,3
18:51:53.667018,0,0,-1,-2,-3,-2,-5,-4
18:51:53.675013,1,0,-2,-1,-4,1,4,1
18:51:53.690005,-2,-2,-1,-3,-1,-1,7,1
18:51:53.690005,0,0,0,-4,-2,1,-5,-6
18:51:53.711992,0,1,-4,1,0,-1,1,1
18:51:53.712992,-4,-3,0,-1,0,0,2,-4
18:51:53.734979,12,4,1,1,1,2,-8,-3
18:51:53.735975,-1,0,2,1,-5,1,3,0
18:51:53.749966,-2,-3,-1,-2,-4,-2,-6,-3
18:51:53.750965,-1,-3,-2,-1,-2,-3,-2,1
18:51:53.771955,3,2,-1,2,-1,-5,-2,2
18:51:53.772955,0,-1,-1,-1,-1,0,-3,-1
18:51:53.794938,7,4,0,1,3,2,5,3
18:51:53.794938,-8,0,-1,-2,1,-2,9,-5
18:51:53.809929,4,1,2,-3,1,0,-2,4
18:51:53.809929,2,1,0,-2,-3,-1,5,5
18:51:53.832915,1,-3,-1,0,-1,-4,-3,-3
18:51:53.832915,-4,-2,-3,-1,-4,-7,-18,-10
18:51:53.854904,-1,0,-1,1,0,5,6,3
18:51:53.855902,-4,1,-2,-3,0,0,-3,-2
18:51:53.869893,4,-1,0,0,-2,-2,1,3
18:51:53.870891,-4,-7,0,1,-3,-1,-3,-6
18:51:53.891881,-1,-2,0,-4,-6,-5,-4,-3
18:51:53.892878,0,-4,-2,0,1,0,4,2
18:51:53.914867,-7,-2,-2,-3,-3,-5,-4,-8
18:51:53.915866,-2,-1,-1,0,-1,-1,-2,-6
18:51:53.929857,1,-3,-1,-2,2,5,-13,0
18:51:53.929857,-2,-4,-1,0,3,5,-4,4
18:51:53.952840,-6,-3,-4,-2,-4,-8,-4,-6
18:51:53.952840,-1,0,-2,-2,2,2,2,2
18:51:53.974829,-4,-3,-3,-3,-2,-1,-1,1
18:51:53.975826,-2,-1,-3,-5,-3,2,2,5
18:51:53.989820,2,1,-4,-4,-7,2,1,-3
18:51:53.990817,-1,-3,1,-1,0,0,0,-1
18:51:54.012806,-2,2,-2,-2,-4,-3,-1,-5
18:51:54.012806,4,0,1,-2,0,0,7,5
18:51:54.034793,1,-1,3,1,3,0,-1,-3
18:51:54.035789,3,0,-3,3,2,1,3,-1
18:51:54.049783,-1,-2,0,1,-2,-2,-1,1
18:51:54.050782,-5,-2,-3,-3,0,-1,-1,0
18:51:54.079764,-3,-2,0,1,-2,-2,-2,-3
18:51:54.080761,-4,-1,-1,0,4,-4,-4,-1
18:51:54.094755,-1,-1,-3,-3,-2,-5,0,1
18:51:54.095755,-6,1,-1,0,-4,-2,-7,-5
18:51:54.109746,1,3,4,1,1,0,-5,-9
18:51:54.110743,-2,-3,-1,-2,0,-2,-4,-6
18:51:54.132732,-6,-3,-3,0,1,0,-15,-1
18:51:54.132732,-3,-2,-2,-2,1,-2,-24,-7
